ENLIGHTEN Version,1.7.2
Measurement ID,20190716-221529-871210-WP-00438
Serial Number,WP-00438
Label,acetone 2mm HDPE
Integration Time,2000
Timestamp,2019-07-16 22:15:29.871210
Note,
Temperature,-99
CCD C0,807.1400146484375
CCD C1,0.11761099845170975
CCD C2,-1.6414700439781882e-05
CCD C3,2.3293600381890656e-09
CCD Offset,0
CCD Gain,8.0
Laser Wavelength,785.0
Laser Enable,True
Laser Power,100.0
Laser Temperature,-99
Pixel Count,1952

Wavenumber,Processed
349.43,0.00
351.23,0.00
353.04,0.00
354.84,6640.00
356.64,5515.00
358.44,6746.00
360.24,5685.00
362.04,6742.00
363.84,5761.00
365.64,6824.00
367.43,5866.00
369.23,6990.00
371.02,5574.00
372.81,6715.00
374.60,5963.00
376.39,6762.00
378.18,5948.00
379.97,6923.00
381.76,5683.00
383.55,6656.00
385.33,5639.00
387.11,6623.00
388.90,5858.00
390.68,6602.00
392.46,5630.00
394.24,6668.00
396.02,5708.00
397.80,6629.00
399.58,5698.00
401.35,6504.00
403.13,5566.00
404.90,6467.00
406.68,5360.00
408.45,6509.00
410.22,5713.00
411.99,6489.00
413.76,5522.00
415.53,6542.00
417.30,5498.00
419.06,6692.00
420.83,5683.00
422.59,6668.00
424.35,5618.00
426.12,6482.00
427.88,5557.00
429.64,6703.00
431.40,5691.00
433.16,6586.00
434.91,5633.00
436.67,6384.00
438.43,5736.00
440.18,6879.00
441.93,5497.00
443.69,6474.00
445.44,5767.00
447.19,6507.00
448.94,5464.00
450.69,6266.00
452.43,5581.00
454.18,6446.00
455.92,5543.00
457.67,6280.00
459.41,5247.00
461.16,6070.00
462.90,5295.00
464.64,6289.00
466.38,5337.00
468.12,6333.00
469.85,5209.00
471.59,6367.00
473.33,5147.00
475.06,6169.00
476.80,5243.00
478.53,6044.00
480.26,5185.00
481.99,5980.00
483.72,5208.00
485.45,6037.00
487.18,5065.00
488.91,6019.00
490.63,5206.00
492.36,5999.00
494.08,5069.00
495.80,6053.00
497.53,5172.00
499.25,5864.00
500.97,4978.00
502.69,5924.00
504.41,4808.00
506.12,5910.00
507.84,5091.00
509.56,5737.00
511.27,4840.00
512.98,5793.00
514.70,4922.00
516.41,5840.00
518.12,4844.00
519.83,5798.00
521.54,4929.00
523.25,5841.00
524.95,4927.00
526.66,5758.00
528.36,4949.00
530.07,5886.00
531.77,4993.00
533.47,5712.00
535.18,4899.00
536.88,5723.00
538.58,4800.00
540.27,5840.00
541.97,4726.00
543.67,5806.00
545.36,4817.00
547.06,5369.00
548.75,4726.00
550.45,5625.00
552.14,4648.00
553.83,5608.00
555.52,4718.00
557.21,5416.00
558.90,4476.00
560.58,5658.00
562.27,4449.00
563.96,5495.00
565.64,4472.00
567.32,5399.00
569.01,4867.00
570.69,5264.00
572.37,4443.00
574.05,5091.00
575.73,4436.00
577.41,5333.00
579.08,4506.00
580.76,5077.00
582.44,4390.00
584.11,5196.00
585.78,4552.00
587.46,5180.00
589.13,4422.00
590.80,5491.00
592.47,4464.00
594.14,5165.00
595.81,4517.00
597.47,5209.00
599.14,4536.00
600.80,5303.00
602.47,4299.00
604.13,5241.00
605.79,4314.00
607.46,5207.00
609.12,4347.00
610.78,5023.00
612.44,4400.00
614.09,5047.00
615.75,4433.00
617.41,5222.00
619.06,4403.00
620.72,5179.00
622.37,4176.00
624.02,4932.00
625.67,4421.00
627.33,5316.00
628.97,4364.00
630.62,4890.00
632.27,4515.00
633.92,5120.00
635.57,4284.00
637.21,4984.00
638.86,4402.00
640.50,4953.00
642.14,4359.00
643.78,5128.00
645.42,4315.00
647.06,5176.00
648.70,4292.00
650.34,4907.00
651.98,4247.00
653.62,4807.00
655.25,4229.00
656.89,4880.00
658.52,4153.00
660.15,4805.00
661.79,4067.00
663.42,4645.00
665.05,4177.00
666.68,4924.00
668.31,4129.00
669.93,4701.00
671.56,4042.00
673.19,4756.00
674.81,4062.00
676.43,4801.00
678.06,4093.00
679.68,4455.00
681.30,4055.00
682.92,4640.00
684.54,4083.00
686.16,4567.00
687.78,4003.00
689.40,4761.00
691.01,3992.00
692.63,4754.00
694.24,3962.00
695.86,4523.00
697.47,4090.00
699.08,4445.00
700.69,3965.00
702.30,4700.00
703.91,4024.00
705.52,4517.00
707.13,3971.00
708.74,4762.00
710.34,4077.00
711.95,4806.00
713.55,4064.00
715.15,4678.00
716.76,4119.00
718.36,4761.00
719.96,3839.00
721.56,4539.00
723.16,4023.00
724.76,4544.00
726.35,3965.00
727.95,4608.00
729.55,3971.00
731.14,4619.00
732.73,4098.00
734.33,4674.00
735.92,3913.00
737.51,4880.00
739.10,4029.00
740.69,4840.00
742.28,4002.00
743.87,4703.00
745.46,3846.00
747.04,4629.00
748.63,4042.00
750.21,4694.00
751.80,4014.00
753.38,4995.00
754.96,4059.00
756.54,4890.00
758.12,4224.00
759.70,4914.00
761.28,4318.00
762.86,5328.00
764.44,4571.00
766.01,5202.00
767.59,4718.00
769.16,5553.00
770.74,4989.00
772.31,5756.00
773.88,5133.00
775.45,5940.00
777.02,5221.00
778.59,6242.00
780.16,5538.00
781.73,6283.00
783.30,5674.00
784.86,6336.00
786.43,5623.00
787.99,5942.00
789.56,5474.00
791.12,6235.00
792.68,5348.00
794.24,5824.00
795.80,5227.00
797.36,6006.00
798.92,4939.00
800.48,5621.00
802.04,4989.00
803.59,5720.00
805.15,4918.00
806.70,5634.00
808.26,4670.00
809.81,5397.00
811.36,4551.00
812.91,5489.00
814.46,4745.00
816.01,5252.00
817.56,4693.00
819.11,5360.00
820.66,4663.00
822.20,5346.00
823.75,4704.00
825.30,5393.00
826.84,4494.00
828.38,5277.00
829.93,4580.00
831.47,5434.00
833.01,4566.00
834.55,5651.00
836.09,4567.00
837.63,5366.00
839.16,4822.00
840.70,5252.00
842.24,4483.00
843.77,5371.00
845.31,4741.00
846.84,5551.00
848.37,4779.00
849.90,5526.00
851.44,4587.00
852.97,5585.00
854.50,4732.00
856.03,5598.00
857.55,4814.00
859.08,5682.00
860.61,4929.00
862.13,5649.00
863.66,4744.00
865.18,5612.00
866.70,5001.00
868.23,5668.00
869.75,4970.00
871.27,5901.00
872.79,4955.00
874.31,5586.00
875.83,4973.00
877.35,5629.00
878.86,4900.00
880.38,5547.00
881.89,5032.00
883.41,5562.00
884.92,5173.00
886.44,5853.00
887.95,5069.00
889.46,5792.00
890.97,4766.00
892.48,5702.00
893.99,4835.00
895.50,5704.00
897.01,4955.00
898.51,5688.00
900.02,4448.00
901.52,5517.00
903.03,4818.00
904.53,5685.00
906.04,4777.00
907.54,5564.00
909.04,4810.00
910.54,5401.00
912.04,4673.00
913.54,5509.00
915.04,4712.00
916.53,5296.00
918.03,4698.00
919.53,5427.00
921.02,4591.00
922.52,5315.00
924.01,4560.00
925.50,5406.00
927.00,4460.00
928.49,5158.00
929.98,4510.00
931.47,5025.00
932.96,4389.00
934.44,5182.00
935.93,4510.00
937.42,5055.00
938.90,4314.00
940.39,5192.00
941.87,4226.00
943.36,4980.00
944.84,4268.00
946.32,4907.00
947.80,4434.00
949.29,4880.00
950.77,4101.00
952.24,5039.00
953.72,4279.00
955.20,4693.00
956.68,3927.00
958.15,4624.00
959.63,4351.00
961.10,4936.00
962.58,4271.00
964.05,5033.00
965.52,4225.00
967.00,4681.00
968.47,4126.00
969.94,4946.00
971.41,4126.00
972.87,4763.00
974.34,3971.00
975.81,4781.00
977.28,4037.00
978.74,4753.00
980.21,4079.00
981.67,4780.00
983.13,3845.00
984.60,4922.00
986.06,4038.00
987.52,4780.00
988.98,4137.00
990.44,4705.00
991.90,4045.00
993.36,4714.00
994.82,4064.00
996.27,4660.00
997.73,4165.00
999.18,4703.00
1000.64,4102.00
1002.09,4503.00
1003.55,4027.00
1005.00,4805.00
1006.45,3955.00
1007.90,4876.00
1009.35,4203.00
1010.80,4762.00
1012.25,4248.00
1013.70,4868.00
1015.14,4087.00
1016.59,4738.00
1018.04,4129.00
1019.48,4862.00
1020.93,4264.00
1022.37,5304.00
1023.81,4224.00
1025.25,4933.00
1026.70,4404.00
1028.14,4843.00
1029.58,4529.00
1031.02,5126.00
1032.45,4709.00
1033.89,5530.00
1035.33,5171.00
1036.77,6275.00
1038.20,5793.00
1039.64,6804.00
1041.07,6780.00
1042.50,7637.00
1043.94,7158.00
1045.37,7886.00
1046.80,7548.00
1048.23,8067.00
1049.66,7299.00
1051.09,8072.00
1052.52,7290.00
1053.95,7814.00
1055.37,7057.00
1056.80,7999.00
1058.23,7242.00
1059.65,8049.00
1061.08,7300.00
1062.50,7960.00
1063.92,7228.00
1065.34,7957.00
1066.76,6894.00
1068.19,7555.00
1069.61,6661.00
1071.02,7451.00
1072.44,6223.00
1073.86,7154.00
1075.28,6105.00
1076.69,6856.00
1078.11,6031.00
1079.53,6700.00
1080.94,5727.00
1082.35,6422.00
1083.77,5632.00
1085.18,6185.00
1086.59,5507.00
1088.00,6336.00
1089.41,5416.00
1090.82,5977.00
1092.23,5459.00
1093.64,6038.00
1095.04,5334.00
1096.45,6197.00
1097.86,5596.00
1099.26,6442.00
1100.67,5849.00
1102.07,6977.00
1103.47,6543.00
1104.88,7856.00
1106.28,7514.00
1107.68,8748.00
1109.08,8438.00
1110.48,9470.00
1111.88,8743.00
1113.28,9574.00
1114.67,8734.00
1116.07,9120.00
1117.47,8349.00
1118.86,8885.00
1120.26,7803.00
1121.65,8635.00
1123.05,8033.00
1124.44,8507.00
1125.83,7764.00
1127.22,8314.00
1128.61,7574.00
1130.00,8273.00
1131.39,7481.00
1132.78,7970.00
1134.17,7219.00
1135.56,7759.00
1136.94,6896.00
1138.33,7464.00
1139.72,6503.00
1141.10,7201.00
1142.48,6234.00
1143.87,7104.00
1145.25,6144.00
1146.63,6804.00
1148.01,6187.00
1149.39,6679.00
1150.77,5820.00
1152.15,6692.00
1153.53,5878.00
1154.91,6612.00
1156.29,5515.00
1157.66,6222.00
1159.04,5451.00
1160.41,6173.00
1161.79,5294.00
1163.16,5977.00
1164.54,5175.00
1165.91,6076.00
1167.28,5111.00
1168.65,5809.00
1170.02,5329.00
1171.39,5824.00
1172.76,5153.00
1174.13,5734.00
1175.50,4979.00
1176.86,5725.00
1178.23,5140.00
1179.60,5607.00
1180.96,4968.00
1182.33,5759.00
1183.69,4936.00
1185.05,5629.00
1186.42,4839.00
1187.78,5507.00
1189.14,5045.00
1190.50,5565.00
1191.86,4862.00
1193.22,5357.00
1194.58,4744.00
1195.94,5313.00
1197.29,4759.00
1198.65,5267.00
1200.01,4775.00
1201.36,5246.00
1202.72,4867.00
1204.07,5203.00
1205.42,4815.00
1206.78,5512.00
1208.13,4733.00
1209.48,5312.00
1210.83,4751.00
1212.18,5479.00
1213.53,4810.00
1214.88,5306.00
1216.23,4723.00
1217.58,5331.00
1218.92,4699.00
1220.27,5438.00
1221.61,4783.00
1222.96,5298.00
1224.30,4550.00
1225.65,5256.00
1226.99,4685.00
1228.33,5188.00
1229.67,4475.00
1231.01,5199.00
1232.36,4640.00
1233.70,5060.00
1235.03,4542.00
1236.37,5207.00
1237.71,4479.00
1239.05,4991.00
1240.38,4535.00
1241.72,5064.00
1243.06,4418.00
1244.39,5217.00
1245.72,4708.00
1247.06,5120.00
1248.39,4607.00
1249.72,5363.00
1251.05,4377.00
1252.39,5299.00
1253.72,4717.00
1255.05,5362.00
1256.37,4847.00
1257.70,5462.00
1259.03,4983.00
1260.36,5503.00
1261.68,5178.00
1263.01,5746.00
1264.33,5261.00
1265.66,6172.00
1266.98,6062.00
1268.31,6630.00
1269.63,6493.00
1270.95,7892.00
1272.27,7809.00
1273.59,8700.00
1274.91,8598.00
1276.23,9687.00
1277.55,9233.00
1278.87,9843.00
1280.19,9276.00
1281.51,9960.00
1282.82,8830.00
1284.14,9019.00
1285.45,8686.00
1286.77,9334.00
1288.08,8209.00
1289.39,8717.00
1290.71,8073.00
1292.02,8970.00
1293.33,8654.00
1294.64,8926.00
1295.95,8076.00
1297.26,8834.00
1298.57,7819.00
1299.88,8561.00
1301.19,7477.00
1302.49,7887.00
1303.80,7158.00
1305.11,7630.00
1306.41,6783.00
1307.72,7304.00
1309.02,6523.00
1310.32,6819.00
1311.63,6130.00
1312.93,6395.00
1314.23,5634.00
1315.53,6120.00
1316.83,5225.00
1318.13,5819.00
1319.43,5087.00
1320.73,5562.00
1322.03,4780.00
1323.32,5374.00
1324.62,4798.00
1325.92,5237.00
1327.21,4703.00
1328.51,5265.00
1329.80,4750.00
1331.10,5231.00
1332.39,4374.00
1333.68,5012.00
1334.97,4415.00
1336.27,4958.00
1337.56,4410.00
1338.85,4920.00
1340.14,4425.00
1341.42,5045.00
1342.71,4507.00
1344.00,5005.00
1345.29,4504.00
1346.57,5175.00
1347.86,4443.00
1349.15,5115.00
1350.43,4542.00
1351.71,5182.00
1353.00,4741.00
1354.28,5113.00
1355.56,4656.00
1356.85,5276.00
1358.13,4741.00
1359.41,5202.00
1360.69,4498.00
1361.97,5320.00
1363.25,4711.00
1364.52,5328.00
1365.80,4537.00
1367.08,5009.00
1368.35,4454.00
1369.63,5165.00
1370.91,4739.00
1372.18,5230.00
1373.45,4717.00
1374.73,5374.00
1376.00,4768.00
1377.27,4957.00
1378.54,4656.00
1379.82,5084.00
1381.09,4723.00
1382.36,5280.00
1383.63,4775.00
1384.89,5103.00
1386.16,4675.00
1387.43,5510.00
1388.70,5110.00
1389.96,5821.00
1391.23,5496.00
1392.50,6149.00
1393.76,5831.00
1395.02,6816.00
1396.29,6506.00
1397.55,7045.00
1398.81,6756.00
1400.08,7633.00
1401.34,7026.00
1402.60,7630.00
1403.86,7293.00
1405.12,7902.00
1406.38,7599.00
1407.63,8378.00
1408.89,7890.00
1410.15,8954.00
1411.41,8851.00
1412.66,9335.00
1413.92,9522.00
1415.17,10236.00
1416.43,10253.00
1417.68,11635.00
1418.93,11364.00
1420.19,12712.00
1421.44,12043.00
1422.69,12919.00
1423.94,12498.00
1425.19,13166.00
1426.44,12710.00
1427.69,13201.00
1428.94,12606.00
1430.19,13365.00
1431.43,12338.00
1432.68,13001.00
1433.93,12498.00
1435.17,13443.00
1436.42,12843.00
1437.66,13409.00
1438.91,12732.00
1440.15,13850.00
1441.39,13149.00
1442.64,13861.00
1443.88,13068.00
1445.12,13863.00
1446.36,12846.00
1447.60,13440.00
1448.84,12605.00
1450.08,12932.00
1451.32,12052.00
1452.56,12175.00
1453.79,11337.00
1455.03,11744.00
1456.27,10953.00
1457.50,11108.00
1458.74,10158.00
1459.97,10745.00
1461.21,10066.00
1462.44,10207.00
1463.67,9332.00
1464.91,9972.00
1466.14,8950.00
1467.37,9227.00
1468.60,8567.00
1469.83,8735.00
1471.06,7802.00
1472.29,8010.00
1473.52,7279.00
1474.75,7750.00
1475.97,7181.00
1477.20,7341.00
1478.43,6508.00
1479.65,6939.00
1480.88,6181.00
1482.10,6593.00
1483.33,6116.00
1484.55,6353.00
1485.77,5676.00
1487.00,6136.00
1488.22,5439.00
1489.44,5885.00
1490.66,5448.00
1491.88,5710.00
1493.10,4933.00
1494.32,5375.00
1495.54,5016.00
1496.76,5189.00
1497.97,4846.00
1499.19,5206.00
1500.41,4752.00
1501.62,5177.00
1502.84,4406.00
1504.05,5218.00
1505.27,4438.00
1506.48,4878.00
1507.70,4387.00
1508.91,4809.00
1510.12,4413.00
1511.33,4871.00
1512.54,4250.00
1513.75,4655.00
1514.96,4399.00
1516.17,4670.00
1517.38,4250.00
1518.59,4868.00
1519.80,4144.00
1521.01,4733.00
1522.21,4075.00
1523.42,4539.00
1524.63,4012.00
1525.83,4425.00
1527.04,3993.00
1528.24,4553.00
1529.44,3967.00
1530.65,4422.00
1531.85,3922.00
1533.05,4607.00
1534.25,3912.00
1535.45,4539.00
1536.65,3909.00
1537.85,4320.00
1539.05,3867.00
1540.25,4288.00
1541.45,3827.00
1542.65,4406.00
1543.85,3838.00
1545.04,4181.00
1546.24,3685.00
1547.44,4199.00
1548.63,3800.00
1549.83,4271.00
1551.02,3694.00
1552.21,4114.00
1553.41,3554.00
1554.60,4045.00
1555.79,3513.00
1556.98,4269.00
1558.17,3502.00
1559.37,4022.00
1560.56,3654.00
1561.74,3985.00
1562.93,3471.00
1564.12,3949.00
1565.31,3486.00
1566.50,3966.00
1567.68,3319.00
1568.87,3852.00
1570.06,3316.00
1571.24,3836.00
1572.43,3353.00
1573.61,3993.00
1574.80,3381.00
1575.98,3847.00
1577.16,3279.00
1578.34,3875.00
1579.53,3295.00
1580.71,3805.00
1581.89,3261.00
1583.07,3712.00
1584.25,3293.00
1585.43,3738.00
1586.61,3235.00
1587.78,3632.00
1588.96,3388.00
1590.14,3864.00
1591.32,3220.00
1592.49,3766.00
1593.67,3169.00
1594.84,3564.00
1596.02,3297.00
1597.19,3854.00
1598.37,3175.00
1599.54,3677.00
1600.71,3235.00
1601.88,3467.00
1603.06,3074.00
1604.23,3806.00
1605.40,3014.00
1606.57,3669.00
1607.74,3060.00
1608.91,3551.00
1610.07,3138.00
1611.24,3498.00
1612.41,3128.00
1613.58,3704.00
1614.74,2901.00
1615.91,3531.00
1617.08,2979.00
1618.24,3792.00
1619.41,3199.00
1620.57,3472.00
1621.73,3142.00
1622.90,3560.00
1624.06,3129.00
1625.22,3567.00
1626.38,3139.00
1627.54,3729.00
1628.70,3031.00
1629.87,3609.00
1631.02,3141.00
1632.18,3415.00
1633.34,3169.00
1634.50,3576.00
1635.66,2896.00
1636.82,3442.00
1637.97,3022.00
1639.13,3383.00
1640.28,3002.00
1641.44,3549.00
1642.59,3073.00
1643.75,3514.00
1644.90,3022.00
1646.06,3309.00
1647.21,2880.00
1648.36,3403.00
1649.51,3075.00
1650.66,3455.00
1651.81,2747.00
1652.97,3257.00
1654.11,2991.00
1655.26,3502.00
1656.41,3085.00
1657.56,3468.00
1658.71,3054.00
1659.86,3360.00
1661.00,3012.00
1662.15,3594.00
1663.30,2925.00
1664.44,3449.00
1665.59,2812.00
1666.73,3260.00
1667.88,3131.00
1669.02,3451.00
1670.16,3029.00
1671.30,3414.00
1672.45,2818.00
1673.59,3505.00
1674.73,2884.00
1675.87,3516.00
1677.01,3009.00
1678.15,3499.00
1679.29,3065.00
1680.43,3661.00
1681.57,2808.00
1682.70,3407.00
1683.84,3054.00
1684.98,3367.00
1686.12,3142.00
1687.25,3668.00
1688.39,3161.00
1689.52,3663.00
1690.66,3141.00
1691.79,3592.00
1692.92,3163.00
1694.06,3992.00
1695.19,3103.00
1696.32,3605.00
1697.45,3479.00
1698.58,3759.00
1699.72,3212.00
1700.85,3611.00
1701.98,3380.00
1703.10,3632.00
1704.23,3300.00
1705.36,3822.00
1706.49,3314.00
1707.62,3795.00
1708.74,3391.00
1709.87,3661.00
1711.00,3432.00
1712.12,3908.00
1713.25,3424.00
1714.37,3667.00
1715.50,3336.00
1716.62,3658.00
1717.74,3379.00
1718.87,3879.00
1719.99,3427.00
1721.11,3680.00
1722.23,3399.00
1723.35,3910.00
1724.47,3091.00
1725.59,3736.00
1726.71,3181.00
1727.83,3512.00
1728.95,3274.00
1730.07,3564.00
1731.19,3015.00
1732.30,3684.00
1733.42,3233.00
1734.54,3447.00
1735.65,3218.00
1736.77,3616.00
1737.88,3076.00
1739.00,3503.00
1740.11,3153.00
1741.23,3557.00
1742.34,3074.00
1743.45,3350.00
1744.56,3233.00
1745.68,3480.00
1746.79,2845.00
1747.90,3446.00
1749.01,2879.00
1750.12,3240.00
1751.23,2914.00
1752.34,3407.00
1753.45,3002.00
1754.55,3409.00
1755.66,2742.00
1756.77,3271.00
1757.88,3030.00
1758.98,3301.00
1760.09,2786.00
1761.19,3317.00
1762.30,2903.00
1763.40,3231.00
1764.51,2896.00
1765.61,3289.00
1766.71,2772.00
1767.82,3196.00
1768.92,2880.00
1770.02,3151.00
1771.12,2685.00
1772.22,3263.00
1773.32,2738.00
1774.42,3416.00
1775.52,2786.00
1776.62,3243.00
1777.72,2540.00
1778.82,3037.00
1779.92,2716.00
1781.01,3185.00
1782.11,2458.00
1783.21,2957.00
1784.30,2847.00
1785.40,2944.00
1786.50,2662.00
1787.59,3062.00
1788.68,2731.00
1789.78,2974.00
1790.87,2416.00
1791.96,2869.00
1793.06,2601.00
1794.15,2924.00
1795.24,2507.00
1796.33,3040.00
1797.42,2499.00
1798.51,2929.00
1799.60,2568.00
1800.69,2833.00
1801.78,2170.00
1802.87,2788.00
1803.96,2664.00
1805.05,2782.00
1806.13,2339.00
1807.22,2849.00
1808.31,2289.00
1809.39,2770.00
1810.48,2362.00
1811.56,2884.00
1812.65,2415.00
1813.73,2725.00
1814.82,2295.00
1815.90,2871.00
1816.98,2324.00
1818.07,2703.00
1819.15,2136.00
1820.23,2458.00
1821.31,2279.00
1822.39,2641.00
1823.47,2070.00
1824.55,2564.00
1825.63,2302.00
1826.71,2511.00
1827.79,2102.00
1828.87,2550.00
1829.95,2089.00
1831.02,2618.00
1832.10,2064.00
1833.18,2503.00
1834.25,2033.00
1835.33,2576.00
1836.40,2068.00
1837.48,2372.00
1838.55,1998.00
1839.63,2419.00
1840.70,1851.00
1841.77,2409.00
1842.85,2048.00
1843.92,2387.00
1844.99,1968.00
1846.06,2268.00
1847.13,1929.00
1848.20,2377.00
1849.28,1898.00
1850.34,2289.00
1851.41,1836.00
1852.48,2348.00
1853.55,1884.00
1854.62,2275.00
1855.69,1964.00
1856.76,2120.00
1857.82,1933.00
1858.89,2177.00
1859.95,1898.00
1861.02,2210.00
1862.09,1708.00
1863.15,2048.00
1864.21,1701.00
1865.28,2043.00
1866.34,1835.00
1867.41,2152.00
1868.47,1702.00
1869.53,2067.00
1870.59,1732.00
1871.65,2064.00
1872.71,1816.00
1873.78,2060.00
1874.84,1708.00
1875.90,2103.00
1876.96,1770.00
1878.01,2015.00
1879.07,1739.00
1880.13,1999.00
1881.19,1785.00
1882.25,2046.00
1883.30,1673.00
1884.36,2077.00
1885.42,1773.00
1886.47,2127.00
1887.53,1692.00
1888.58,2132.00
1889.64,1802.00
1890.69,2040.00
1891.74,1561.00
1892.80,2065.00
1893.85,1475.00
1894.90,1886.00
1895.96,1651.00
1897.01,2175.00
1898.06,1799.00
1899.11,2110.00
1900.16,1751.00
1901.21,2211.00
1902.26,1626.00
1903.31,2012.00
1904.36,1601.00
1905.41,2082.00
1906.45,1543.00
1907.50,1980.00
1908.55,1678.00
1909.60,1963.00
1910.64,1652.00
1911.69,1920.00
1912.73,1630.00
1913.78,1856.00
1914.82,1765.00
1915.87,2054.00
1916.91,1579.00
1917.96,1846.00
1919.00,1588.00
1920.04,2002.00
1921.08,1625.00
1922.13,2058.00
1923.17,1599.00
1924.21,2056.00
1925.25,1620.00
1926.29,1841.00
1927.33,1622.00
1928.37,1897.00
1929.41,1534.00
1930.45,1904.00
1931.49,1677.00
1932.53,1956.00
1933.56,1622.00
1934.60,1961.00
1935.64,1615.00
1936.67,1965.00
1937.71,1565.00
1938.75,1980.00
1939.78,1522.00
1940.82,1843.00
1941.85,1477.00
1942.89,2010.00
1943.92,1458.00
1944.95,1860.00
1945.99,1559.00
1947.02,2033.00
1948.05,1497.00
1949.08,1926.00
1950.11,1641.00
1951.15,2013.00
1952.18,1518.00
1953.21,1874.00
1954.24,1494.00
1955.27,1855.00
1956.30,1601.00
1957.32,1804.00
1958.35,1633.00
1959.38,1914.00
1960.41,1511.00
1961.44,1834.00
1962.46,1596.00
1963.49,1993.00
1964.51,1487.00
1965.54,1827.00
1966.57,1434.00
1967.59,1889.00
1968.62,1454.00
1969.64,1900.00
1970.66,1561.00
1971.69,1976.00
1972.71,1491.00
1973.73,1805.00
1974.75,1559.00
1975.78,1908.00
1976.80,1586.00
1977.82,1819.00
1978.84,1425.00
1979.86,1877.00
1980.88,1531.00
1981.90,1713.00
1982.92,1562.00
1983.94,1813.00
1984.96,1341.00
1985.98,1934.00
1986.99,1261.00
1988.01,1901.00
1989.03,1439.00
1990.04,1753.00
1991.06,1472.00
1992.08,1930.00
1993.09,1424.00
1994.11,1787.00
1995.12,1501.00
1996.14,1811.00
1997.15,1352.00
1998.16,1896.00
1999.18,1539.00
2000.19,1900.00
2001.20,1440.00
2002.21,1716.00
2003.23,1435.00
2004.24,1895.00
2005.25,1371.00
2006.26,1822.00
2007.27,1439.00
2008.28,1730.00
2009.29,1369.00
2010.30,1775.00
2011.31,1528.00
2012.32,1885.00
2013.32,1419.00
2014.33,1804.00
2015.34,1452.00
2016.35,1751.00
2017.35,1465.00
2018.36,1855.00
2019.36,1386.00
2020.37,1702.00
2021.38,1554.00
2022.38,1788.00
2023.38,1540.00
2024.39,1786.00
2025.39,1565.00
2026.40,1821.00
2027.40,1391.00
2028.40,1830.00
2029.40,1485.00
2030.41,1730.00
2031.41,1388.00
2032.41,1704.00
2033.41,1289.00
2034.41,1805.00
2035.41,1482.00
2036.41,1910.00
2037.41,1322.00
2038.41,1829.00
2039.41,1362.00
2040.40,1776.00
2041.40,1389.00
2042.40,1748.00
2043.40,1484.00
2044.39,1758.00
2045.39,1338.00
2046.39,1722.00
2047.38,1349.00
2048.38,1791.00
2049.37,1389.00
2050.37,1708.00
2051.36,1420.00
2052.36,1681.00
2053.35,1308.00
2054.34,1752.00
2055.34,1269.00
2056.33,1546.00
2057.32,1391.00
2058.31,1637.00
2059.30,1310.00
2060.30,1700.00
2061.29,1314.00
2062.28,1699.00
2063.27,1326.00
2064.26,1707.00
2065.25,1306.00
2066.23,1567.00
2067.22,1274.00
2068.21,1713.00
2069.20,1233.00
2070.19,1602.00
2071.17,1389.00
2072.16,1589.00
2073.15,1292.00
2074.13,1475.00
2075.12,1213.00
2076.11,1535.00
2077.09,1122.00
2078.08,1505.00
2079.06,1190.00
2080.04,1575.00
2081.03,1201.00
2082.01,1431.00
2083.00,1223.00
2083.98,1509.00
2084.96,1144.00
2085.94,1395.00
2086.92,1152.00
2087.91,1371.00
2088.89,1227.00
2089.87,1510.00
2090.85,1154.00
2091.83,1303.00
2092.81,1052.00
2093.79,1466.00
2094.77,1147.00
2095.74,1524.00
2096.72,1139.00
2097.70,1487.00
2098.68,1233.00
2099.66,1457.00
2100.63,1224.00
2101.61,1494.00
2102.59,1122.00
2103.56,1465.00
2104.54,1036.00
2105.51,1418.00
2106.49,1062.00
2107.46,1509.00
2108.44,1089.00
2109.41,1407.00
2110.38,1063.00
2111.36,1498.00
2112.33,1077.00
2113.30,1415.00
2114.27,1144.00
2115.25,1337.00
2116.22,995.00
2117.19,1302.00
2118.16,1076.00
2119.13,1297.00
2120.10,1052.00
2121.07,1422.00
2122.04,1044.00
2123.01,1201.00
2123.98,920.00
2124.95,1131.00
2125.91,900.00
2126.88,1335.00
2127.85,985.00
2128.82,1424.00
2129.78,918.00
2130.75,1251.00
2131.72,902.00
2132.68,1314.00
2133.65,1006.00
2134.61,1396.00
2135.58,1002.00
2136.54,1234.00
2137.51,950.00
2138.47,1165.00
2139.43,963.00
2140.40,1375.00
2141.36,986.00
2142.32,1232.00
2143.29,1001.00
2144.25,1217.00
2145.21,973.00
2146.17,1137.00
2147.13,881.00
2148.09,1280.00
2149.05,1112.00
2150.01,1282.00
2150.97,1036.00
2151.93,1280.00
2152.89,932.00
2153.85,1275.00
2154.81,1002.00
2155.76,1369.00
2156.72,1026.00
2157.68,1266.00
2158.64,952.00
2159.59,1272.00
2160.55,985.00
2161.51,1234.00
2162.46,963.00
2163.42,1408.00
2164.37,996.00
2165.33,1327.00
2166.28,881.00
2167.24,1166.00
2168.19,1076.00
2169.14,1292.00
2170.10,1037.00
2171.05,1252.00
2172.00,1015.00
2172.95,1411.00
2173.91,985.00
2174.86,1339.00
2175.81,1000.00
2176.76,1221.00
2177.71,972.00
2178.66,1321.00
2179.61,1025.00
2180.56,1437.00
2181.51,1038.00
2182.46,1213.00
2183.41,1024.00
2184.36,1248.00
2185.30,1008.00
2186.25,1367.00
2187.20,1018.00
2188.15,1327.00
2189.09,1011.00
2190.04,1287.00
2190.99,974.00
2191.93,1272.00
2192.88,968.00
2193.82,1159.00
2194.77,967.00
2195.71,1217.00
2196.66,874.00
2197.60,1290.00
2198.54,983.00
2199.49,1322.00
2200.43,841.00
2201.37,1300.00
2202.32,911.00
2203.26,1263.00
2204.20,1022.00
2205.14,1348.00
2206.08,1040.00
2207.02,1275.00
2207.96,970.00
2208.90,1378.00
2209.84,1061.00
2210.78,1182.00
2211.72,984.00
2212.66,1312.00
2213.60,841.00
2214.54,1353.00
2215.48,1124.00
2216.42,1460.00
2217.35,973.00
2218.29,1302.00
2219.23,1022.00
2220.16,1372.00
2221.10,1032.00
2222.04,1292.00
2222.97,926.00
2223.91,1349.00
2224.84,970.00
2225.78,1389.00
2226.71,972.00
2227.65,1357.00
2228.58,1103.00
2229.51,1350.00
2230.45,912.00
2231.38,1357.00
2232.31,879.00
2233.24,1339.00
2234.18,933.00
2235.11,1338.00
2236.04,946.00
2236.97,1462.00
2237.90,979.00
2238.83,1353.00
2239.76,898.00
2240.69,1243.00
2241.62,954.00
2242.55,1259.00
2243.48,987.00
2244.41,1374.00
2245.34,1038.00
2246.27,1368.00
2247.19,1054.00
2248.12,1343.00
2249.05,892.00
2249.98,1352.00
2250.90,1078.00
2251.83,1387.00
2252.75,949.00
2253.68,1350.00
2254.61,995.00
2255.53,1373.00
2256.46,1170.00
2257.38,1390.00
2258.31,1025.00
2259.23,1341.00
2260.15,1070.00
2261.08,1392.00
2262.00,938.00
2262.92,1321.00
2263.85,983.00
2264.77,1310.00
2265.69,960.00
2266.61,1375.00
2267.53,1094.00
2268.45,1271.00
2269.37,1003.00
2270.30,1288.00
2271.22,937.00
2272.14,1326.00
2273.05,1065.00
2273.97,1322.00
2274.89,981.00
2275.81,1266.00
2276.73,990.00
2277.65,1209.00
2278.57,964.00
2279.48,1345.00
2280.40,966.00
2281.32,1116.00
2282.24,959.00
2283.15,1391.00
2284.07,896.00
2284.98,1303.00
2285.90,928.00
2286.82,1267.00
2287.73,941.00
2288.65,1306.00
2289.56,1011.00
2290.47,1376.00
2291.39,1080.00
2292.30,1286.00
2293.21,945.00
2294.13,1284.00
2295.04,945.00
2295.95,1187.00
2296.87,880.00
2297.78,1186.00
2298.69,843.00
2299.60,1177.00
2300.51,895.00
2301.42,1260.00
2302.33,910.00
2303.24,1281.00
2304.15,963.00
2305.06,1477.00
2305.97,913.00
2306.88,1182.00
2307.79,917.00
2308.70,1189.00
2309.61,878.00
2310.51,1152.00
2311.42,884.00
2312.33,1252.00
2313.24,1025.00
2314.14,1307.00
2315.05,917.00
2315.96,1183.00
2316.86,868.00
2317.77,1174.00
2318.67,923.00
2319.58,1200.00
2320.48,736.00
2321.39,1269.00
2322.29,906.00
2323.20,1166.00
2324.10,859.00
2325.00,1146.00
2325.91,855.00
2326.81,1128.00
2327.71,947.00
2328.62,1233.00
2329.52,819.00
2330.42,1299.00
2331.32,828.00
2332.22,990.00
2333.12,862.00
2334.03,1014.00
2334.93,871.00
2335.83,1140.00
2336.73,874.00
2337.63,1158.00
2338.53,725.00
2339.42,1184.00
2340.32,713.00
2341.22,1048.00
2342.12,896.00
2343.02,1127.00
2343.92,698.00
2344.81,1067.00
2345.71,792.00
2346.61,1039.00
2347.51,794.00
2348.40,1064.00
2349.30,704.00
2350.19,1124.00
2351.09,741.00
2351.98,1116.00
2352.88,822.00
2353.77,1114.00
2354.67,716.00
2355.56,1039.00
2356.46,683.00
2357.35,1058.00
2358.25,731.00
2359.14,1103.00
2360.03,719.00
2360.92,950.00
2361.82,777.00
2362.71,1052.00
2363.60,750.00
2364.49,1174.00
2365.38,802.00
2366.28,1168.00
2367.17,725.00
2368.06,1019.00
2368.95,766.00
2369.84,1082.00
2370.73,749.00
2371.62,1156.00
2372.51,795.00
2373.40,994.00
2374.28,883.00
2375.17,1056.00
2376.06,756.00
2376.95,1007.00
2377.84,649.00
2378.72,1143.00
2379.61,747.00
2380.50,1095.00
2381.39,733.00
2382.27,1101.00
2383.16,767.00
2384.04,1086.00
2384.93,628.00
2385.81,1049.00
2386.70,802.00
2387.59,1030.00
2388.47,823.00
2389.35,1094.00
2390.24,724.00
2391.12,932.00
2392.01,741.00
2392.89,1052.00
2393.77,772.00
2394.66,1098.00
2395.54,754.00
2396.42,997.00
2397.30,747.00
2398.18,1041.00
2399.07,745.00
2399.95,1231.00
2400.83,829.00
2401.71,1168.00
2402.59,623.00
2403.47,1185.00
2404.35,796.00
2405.23,1143.00
2406.11,748.00
2406.99,1064.00
2407.87,771.00
2408.75,1144.00
2409.62,813.00
2410.50,1094.00
2411.38,766.00
2412.26,1214.00
2413.14,732.00
2414.01,1023.00
2414.89,740.00
2415.77,1168.00
2416.64,723.00
2417.52,1087.00
2418.40,820.00
2419.27,1060.00
2420.15,812.00
2421.02,1113.00
2421.90,727.00
2422.77,1130.00
2423.65,887.00
2424.52,1089.00
2425.40,805.00
2426.27,1145.00
2427.14,783.00
2428.02,1121.00
2428.89,694.00
2429.76,1195.00
2430.64,856.00
2431.51,1184.00
2432.38,863.00
2433.25,1176.00
2434.12,924.00
2434.99,1139.00
2435.87,876.00
2436.74,1126.00
2437.61,743.00
2438.48,1231.00
2439.35,884.00
2440.22,1153.00
2441.09,854.00
2441.96,1263.00
2442.83,847.00
2443.69,1159.00
2444.56,726.00
2445.43,1125.00
2446.30,819.00
2447.17,1239.00
2448.04,729.00
2448.90,1139.00
2449.77,872.00
2450.64,1271.00
2451.50,843.00
2452.37,1143.00
2453.24,739.00
2454.10,1038.00
2454.97,874.00
2455.83,1207.00
2456.70,827.00
2457.56,1108.00
2458.43,824.00
2459.29,1150.00
2460.16,913.00
2461.02,1139.00
2461.89,766.00
2462.75,1162.00
2463.61,631.00
2464.48,1174.00
2465.34,844.00
2466.20,1194.00
2467.06,740.00
2467.93,1106.00
2468.79,833.00
2469.65,1113.00
2470.51,834.00
2471.37,1039.00
2472.23,828.00
2473.10,1111.00
2473.96,990.00
2474.82,1148.00
2475.68,828.00
2476.54,1114.00
2477.40,848.00
2478.26,1267.00
2479.11,785.00
2479.97,1192.00
2480.83,814.00
2481.69,1158.00
2482.55,877.00
2483.41,1212.00
2484.26,938.00
2485.12,1164.00
2485.98,847.00
2486.84,1121.00
2487.69,845.00
2488.55,1230.00
2489.41,830.00
2490.26,1161.00
2491.12,892.00
2491.97,1220.00
2492.83,757.00
2493.68,1110.00
2494.54,818.00
2495.39,1314.00
2496.25,828.00
2497.10,1237.00
2497.96,918.00
2498.81,1138.00
2499.67,860.00
2500.52,1147.00
2501.37,902.00
2502.22,1152.00
2503.08,885.00
2503.93,1160.00
2504.78,831.00
2505.63,1246.00
2506.49,898.00
2507.34,1203.00
2508.19,808.00
2509.04,1120.00
2509.89,869.00
2510.74,1238.00
2511.59,827.00
2512.44,1272.00
2513.29,826.00
2514.14,1256.00
2514.99,866.00
2515.84,1080.00
2516.69,645.00
2517.54,1065.00
2518.39,854.00
2519.24,1097.00
2520.08,794.00
2520.93,1158.00
2521.78,771.00
2522.63,1206.00
2523.48,839.00
2524.32,1206.00
2525.17,742.00
2526.02,1217.00
2526.86,872.00
2527.71,1199.00
2528.56,755.00
2529.40,1158.00
2530.25,792.00
2531.09,1238.00
2531.94,804.00
2532.78,1039.00
2533.63,745.00
2534.47,1153.00
2535.32,838.00
2536.16,1172.00
2537.00,730.00
2537.85,1152.00
2538.69,823.00
2539.53,992.00
2540.38,906.00
2541.22,1256.00
2542.06,807.00
2542.90,1148.00
2543.75,731.00
2544.59,1211.00
2545.43,851.00
2546.27,1132.00
2547.11,746.00
2547.95,1221.00
2548.79,817.00
2549.64,1151.00
2550.48,766.00
2551.32,1237.00
2552.16,773.00
2553.00,1250.00
2553.84,858.00
2554.67,1057.00
2555.51,935.00
2556.35,1275.00
2557.19,827.00
2558.03,1143.00
2558.87,846.00
2559.71,1183.00
2560.54,778.00
2561.38,1095.00
2562.22,732.00
2563.06,1098.00
2563.89,782.00
2564.73,1154.00
2565.57,728.00
2566.40,1181.00
2567.24,772.00
2568.07,1156.00
2568.91,832.00
2569.75,1176.00
2570.58,775.00
2571.42,1023.00
2572.25,812.00
2573.09,1082.00
2573.92,793.00
2574.75,1037.00
2575.59,797.00
2576.42,1186.00
2577.26,818.00
2578.09,1120.00
2578.92,829.00
2579.76,1127.00
2580.59,781.00
2581.42,1237.00
2582.25,943.00
2583.09,1143.00
2583.92,828.00
2584.75,1232.00
2585.58,811.00
2586.41,1229.00
2587.24,692.00
2588.07,1193.00
2588.91,657.00
2589.74,1256.00
2590.57,777.00
2591.40,1163.00
2592.23,839.00
2593.06,1178.00
2593.89,804.00
2594.72,1182.00
2595.54,879.00
2596.37,1262.00
2597.20,753.00
2598.03,1240.00
2598.86,802.00
2599.69,1286.00
2600.52,792.00
2601.34,1282.00
2602.17,715.00
2603.00,1354.00
2603.82,695.00
2604.65,1266.00
2605.48,865.00
2606.30,1216.00
2607.13,781.00
2607.96,1241.00
2608.78,899.00
2609.61,1251.00
2610.43,896.00
2611.26,1222.00
2612.08,726.00
2612.91,1161.00
2613.73,880.00
2614.56,1207.00
2615.38,806.00
2616.21,1318.00
2617.03,716.00
2617.86,1209.00
2618.68,847.00
2619.50,1256.00
2620.33,875.00
2621.15,1185.00
2621.97,796.00
2622.79,1174.00
2623.62,885.00
2624.44,1187.00
2625.26,794.00
2626.08,1167.00
2626.90,907.00
2627.72,1250.00
2628.55,816.00
2629.37,1106.00
2630.19,902.00
2631.01,1161.00
2631.83,925.00
2632.65,1246.00
2633.47,778.00
2634.29,1147.00
2635.11,764.00
2635.93,1270.00
2636.75,884.00
2637.57,1197.00
2638.39,823.00
2639.20,1342.00
2640.02,728.00
2640.84,1236.00
2641.66,898.00
2642.48,1265.00
2643.29,802.00
2644.11,1161.00
2644.93,949.00
2645.75,1238.00
2646.56,942.00
2647.38,1265.00
2648.20,751.00
2649.01,0.00
2649.83,0.00
2650.65,0.00
2651.46,0.00
2652.28,0.00
