ENLIGHTEN Version,1.7.2
Measurement ID,20190716-221623-575978-WP-00438
Serial Number,WP-00438
Label,alkanes 2mm HDPE
Integration Time,2000
Timestamp,2019-07-16 22:16:23.575978
Note,
Temperature,-99
CCD C0,807.1400146484375
CCD C1,0.11761099845170975
CCD C2,-1.6414700439781882e-05
CCD C3,2.3293600381890656e-09
CCD Offset,0
CCD Gain,8.0
Laser Wavelength,785.0
Laser Enable,True
Laser Power,100.0
Laser Temperature,-99
Pixel Count,1952

Wavenumber,Processed
349.43,0.00
351.23,0.00
353.04,0.00
354.84,6825.00
356.64,5278.00
358.44,6614.00
360.24,5482.00
362.04,6740.00
363.84,5583.00
365.64,6511.00
367.43,5590.00
369.23,6748.00
371.02,5584.00
372.81,6662.00
374.60,5427.00
376.39,6455.00
378.18,5578.00
379.97,6602.00
381.76,5369.00
383.55,6476.00
385.33,5526.00
387.11,6467.00
388.90,5547.00
390.68,6421.00
392.46,5383.00
394.24,6337.00
396.02,5589.00
397.80,6280.00
399.58,5419.00
401.35,6425.00
403.13,5060.00
404.90,6203.00
406.68,5300.00
408.45,6330.00
410.22,5434.00
411.99,6269.00
413.76,5481.00
415.53,6286.00
417.30,5512.00
419.06,6255.00
420.83,5300.00
422.59,6391.00
424.35,5577.00
426.12,6382.00
427.88,5518.00
429.64,6307.00
431.40,5473.00
433.16,6186.00
434.91,5281.00
436.67,6385.00
438.43,5419.00
440.18,6340.00
441.93,5407.00
443.69,6236.00
445.44,5480.00
447.19,6189.00
448.94,5075.00
450.69,6128.00
452.43,5206.00
454.18,6024.00
455.92,5386.00
457.67,6306.00
459.41,5214.00
461.16,5770.00
462.90,5168.00
464.64,5763.00
466.38,5086.00
468.12,5968.00
469.85,4974.00
471.59,5974.00
473.33,5035.00
475.06,5711.00
476.80,4884.00
478.53,5717.00
480.26,4787.00
481.99,5655.00
483.72,4827.00
485.45,5712.00
487.18,4943.00
488.91,5600.00
490.63,4729.00
492.36,5551.00
494.08,4842.00
495.80,5624.00
497.53,4929.00
499.25,5506.00
500.97,4646.00
502.69,5436.00
504.41,4668.00
506.12,5501.00
507.84,4451.00
509.56,5433.00
511.27,4641.00
512.98,5470.00
514.70,4630.00
516.41,5405.00
518.12,4364.00
519.83,5278.00
521.54,4377.00
523.25,5316.00
524.95,4356.00
526.66,5247.00
528.36,4355.00
530.07,5277.00
531.77,4353.00
533.47,5247.00
535.18,4394.00
536.88,5077.00
538.58,4240.00
540.27,5158.00
541.97,4217.00
543.67,5273.00
545.36,4222.00
547.06,5111.00
548.75,4307.00
550.45,5168.00
552.14,4354.00
553.83,5037.00
555.52,4282.00
557.21,4979.00
558.90,4332.00
560.58,4811.00
562.27,4227.00
563.96,4906.00
565.64,4239.00
567.32,5006.00
569.01,4183.00
570.69,4944.00
572.37,4102.00
574.05,4958.00
575.73,4091.00
577.41,4934.00
579.08,4164.00
580.76,4976.00
582.44,4094.00
584.11,5043.00
585.78,4091.00
587.46,4890.00
589.13,4077.00
590.80,4829.00
592.47,4258.00
594.14,5082.00
595.81,4137.00
597.47,5045.00
599.14,4164.00
600.80,4950.00
602.47,4142.00
604.13,5033.00
605.79,4153.00
607.46,4963.00
609.12,4014.00
610.78,4674.00
612.44,3991.00
614.09,4728.00
615.75,4279.00
617.41,4873.00
619.06,3980.00
620.72,4944.00
622.37,4085.00
624.02,4672.00
625.67,4116.00
627.33,4848.00
628.97,3915.00
630.62,4641.00
632.27,4057.00
633.92,4713.00
635.57,3946.00
637.21,4709.00
638.86,4101.00
640.50,4591.00
642.14,3885.00
643.78,4612.00
645.42,4103.00
647.06,4663.00
648.70,3888.00
650.34,4630.00
651.98,3843.00
653.62,4671.00
655.25,3881.00
656.89,4524.00
658.52,3923.00
660.15,4323.00
661.79,3694.00
663.42,4328.00
665.05,3812.00
666.68,4522.00
668.31,3657.00
669.93,4587.00
671.56,3742.00
673.19,4558.00
674.81,3638.00
676.43,4455.00
678.06,3759.00
679.68,4339.00
681.30,3736.00
682.92,4337.00
684.54,3702.00
686.16,4219.00
687.78,3783.00
689.40,4256.00
691.01,3505.00
692.63,4272.00
694.24,3626.00
695.86,4464.00
697.47,3813.00
699.08,4411.00
700.69,3675.00
702.30,4369.00
703.91,3739.00
705.52,4400.00
707.13,3654.00
708.74,4432.00
710.34,3792.00
711.95,4423.00
713.55,3785.00
715.15,4289.00
716.76,3777.00
718.36,4415.00
719.96,3711.00
721.56,4352.00
723.16,3812.00
724.76,4253.00
726.35,3718.00
727.95,4170.00
729.55,3778.00
731.14,4457.00
732.73,3823.00
734.33,4385.00
735.92,3867.00
737.51,4362.00
739.10,3774.00
740.69,4598.00
742.28,3719.00
743.87,4480.00
745.46,3922.00
747.04,4541.00
748.63,3646.00
750.21,4409.00
751.80,3861.00
753.38,4582.00
754.96,3835.00
756.54,4600.00
758.12,3755.00
759.70,4527.00
761.28,3867.00
762.86,4708.00
764.44,3859.00
766.01,4483.00
767.59,3852.00
769.16,4650.00
770.74,3968.00
772.31,4562.00
773.88,4050.00
775.45,4671.00
777.02,3983.00
778.59,4735.00
780.16,3995.00
781.73,4723.00
783.30,3976.00
784.86,4919.00
786.43,4157.00
787.99,4662.00
789.56,3885.00
791.12,4583.00
792.68,4108.00
794.24,4646.00
795.80,4199.00
797.36,4885.00
798.92,4099.00
800.48,4676.00
802.04,4120.00
803.59,4909.00
805.15,4071.00
806.70,4688.00
808.26,4221.00
809.81,4816.00
811.36,4152.00
812.91,4945.00
814.46,4157.00
816.01,5115.00
817.56,4474.00
819.11,4940.00
820.66,4409.00
822.20,5006.00
823.75,4473.00
825.30,5289.00
826.84,4363.00
828.38,4947.00
829.93,4323.00
831.47,5130.00
833.01,4380.00
834.55,5179.00
836.09,4448.00
837.63,5264.00
839.16,4523.00
840.70,5131.00
842.24,4421.00
843.77,5310.00
845.31,4504.00
846.84,5461.00
848.37,4617.00
849.90,5426.00
851.44,4690.00
852.97,5397.00
854.50,4547.00
856.03,5264.00
857.55,4879.00
859.08,5347.00
860.61,4661.00
862.13,5200.00
863.66,4516.00
865.18,5453.00
866.70,4759.00
868.23,5448.00
869.75,4674.00
871.27,5397.00
872.79,4496.00
874.31,5414.00
875.83,4793.00
877.35,5417.00
878.86,4695.00
880.38,5542.00
881.89,4747.00
883.41,5255.00
884.92,4819.00
886.44,5292.00
887.95,4739.00
889.46,5381.00
890.97,4746.00
892.48,5398.00
893.99,4598.00
895.50,5422.00
897.01,4725.00
898.51,5428.00
900.02,4582.00
901.52,5344.00
903.03,4571.00
904.53,5219.00
906.04,4579.00
907.54,5215.00
909.04,4536.00
910.54,5171.00
912.04,4553.00
913.54,5146.00
915.04,4467.00
916.53,5134.00
918.03,4366.00
919.53,5036.00
921.02,4468.00
922.52,5280.00
924.01,4115.00
925.50,5137.00
927.00,4307.00
928.49,4915.00
929.98,4345.00
931.47,4994.00
932.96,4028.00
934.44,4833.00
935.93,4187.00
937.42,4602.00
938.90,4085.00
940.39,4759.00
941.87,3958.00
943.36,4628.00
944.84,4150.00
946.32,4653.00
947.80,4058.00
949.29,4747.00
950.77,4068.00
952.24,4859.00
953.72,4111.00
955.20,4725.00
956.68,3907.00
958.15,4700.00
959.63,4044.00
961.10,4534.00
962.58,3939.00
964.05,4651.00
965.52,4041.00
967.00,4573.00
968.47,4076.00
969.94,4627.00
971.41,4048.00
972.87,4522.00
974.34,3796.00
975.81,4574.00
977.28,3962.00
978.74,4584.00
980.21,3733.00
981.67,4546.00
983.13,4061.00
984.60,4542.00
986.06,3811.00
987.52,4570.00
988.98,3689.00
990.44,4657.00
991.90,3872.00
993.36,4477.00
994.82,3829.00
996.27,4369.00
997.73,4108.00
999.18,4573.00
1000.64,3984.00
1002.09,4504.00
1003.55,3950.00
1005.00,4608.00
1006.45,4097.00
1007.90,4578.00
1009.35,3976.00
1010.80,4666.00
1012.25,4113.00
1013.70,4663.00
1015.14,3993.00
1016.59,4757.00
1018.04,4135.00
1019.48,4644.00
1020.93,4014.00
1022.37,4923.00
1023.81,4135.00
1025.25,4765.00
1026.70,4147.00
1028.14,4936.00
1029.58,4539.00
1031.02,5284.00
1032.45,4519.00
1033.89,5574.00
1035.33,5121.00
1036.77,6141.00
1038.20,5767.00
1039.64,6932.00
1041.07,6289.00
1042.50,7518.00
1043.94,7034.00
1045.37,7689.00
1046.80,7360.00
1048.23,7919.00
1049.66,6942.00
1051.09,7715.00
1052.52,7003.00
1053.95,7629.00
1055.37,6981.00
1056.80,7455.00
1058.23,6768.00
1059.65,7396.00
1061.08,6820.00
1062.50,7585.00
1063.92,6890.00
1065.34,7644.00
1066.76,6472.00
1068.19,7435.00
1069.61,6528.00
1071.02,6964.00
1072.44,6061.00
1073.86,6785.00
1075.28,5727.00
1076.69,6549.00
1078.11,5841.00
1079.53,6381.00
1080.94,5641.00
1082.35,6295.00
1083.77,5386.00
1085.18,6128.00
1086.59,5220.00
1088.00,5788.00
1089.41,5100.00
1090.82,5754.00
1092.23,4984.00
1093.64,5828.00
1095.04,5076.00
1096.45,5840.00
1097.86,5476.00
1099.26,6272.00
1100.67,5779.00
1102.07,6709.00
1103.47,6355.00
1104.88,7510.00
1106.28,7224.00
1107.68,8178.00
1109.08,7672.00
1110.48,9037.00
1111.88,8243.00
1113.28,9134.00
1114.67,8444.00
1116.07,8736.00
1117.47,8046.00
1118.86,8258.00
1120.26,7533.00
1121.65,8110.00
1123.05,7417.00
1124.44,7949.00
1125.83,6993.00
1127.22,8036.00
1128.61,7229.00
1130.00,8046.00
1131.39,6992.00
1132.78,7714.00
1134.17,6617.00
1135.56,7415.00
1136.94,6358.00
1138.33,7116.00
1139.72,6503.00
1141.10,6839.00
1142.48,6045.00
1143.87,6654.00
1145.25,5977.00
1146.63,6714.00
1148.01,5856.00
1149.39,6510.00
1150.77,5622.00
1152.15,6302.00
1153.53,5606.00
1154.91,6387.00
1156.29,5368.00
1157.66,6150.00
1159.04,5338.00
1160.41,5709.00
1161.79,5082.00
1163.16,5777.00
1164.54,5166.00
1165.91,5734.00
1167.28,5206.00
1168.65,5700.00
1170.02,5111.00
1171.39,5504.00
1172.76,4790.00
1174.13,5660.00
1175.50,4979.00
1176.86,5438.00
1178.23,4779.00
1179.60,5502.00
1180.96,4754.00
1182.33,5232.00
1183.69,4724.00
1185.05,5404.00
1186.42,4567.00
1187.78,5163.00
1189.14,4603.00
1190.50,5148.00
1191.86,4588.00
1193.22,4998.00
1194.58,4463.00
1195.94,5283.00
1197.29,4462.00
1198.65,5012.00
1200.01,4494.00
1201.36,5159.00
1202.72,4481.00
1204.07,4982.00
1205.42,4552.00
1206.78,5049.00
1208.13,4526.00
1209.48,4820.00
1210.83,4412.00
1212.18,4953.00
1213.53,4490.00
1214.88,5020.00
1216.23,4298.00
1217.58,4830.00
1218.92,4479.00
1220.27,5040.00
1221.61,4320.00
1222.96,4743.00
1224.30,4330.00
1225.65,4864.00
1226.99,4439.00
1228.33,4727.00
1229.67,4235.00
1231.01,4833.00
1232.36,4395.00
1233.70,4767.00
1235.03,4260.00
1236.37,4936.00
1237.71,4303.00
1239.05,5097.00
1240.38,4246.00
1241.72,4946.00
1243.06,4384.00
1244.39,5079.00
1245.72,4432.00
1247.06,5062.00
1248.39,4454.00
1249.72,5026.00
1251.05,4505.00
1252.39,5037.00
1253.72,4520.00
1255.05,5222.00
1256.37,4602.00
1257.70,5206.00
1259.03,4483.00
1260.36,5259.00
1261.68,4802.00
1263.01,5608.00
1264.33,4920.00
1265.66,5983.00
1266.98,5620.00
1268.31,6478.00
1269.63,6410.00
1270.95,7464.00
1272.27,7509.00
1273.59,8467.00
1274.91,8424.00
1276.23,9174.00
1277.55,9065.00
1278.87,9533.00
1280.19,9048.00
1281.51,9392.00
1282.82,8676.00
1284.14,9063.00
1285.45,8542.00
1286.77,8942.00
1288.08,8118.00
1289.39,8442.00
1290.71,8052.00
1292.02,8770.00
1293.33,8126.00
1294.64,8699.00
1295.95,7875.00
1297.26,8655.00
1298.57,7813.00
1299.88,8506.00
1301.19,7525.00
1302.49,7869.00
1303.80,7180.00
1305.11,7443.00
1306.41,6598.00
1307.72,7124.00
1309.02,6254.00
1310.32,6635.00
1311.63,5854.00
1312.93,6122.00
1314.23,5656.00
1315.53,6029.00
1316.83,5432.00
1318.13,5612.00
1319.43,5037.00
1320.73,5502.00
1322.03,4774.00
1323.32,5413.00
1324.62,4907.00
1325.92,5365.00
1327.21,4532.00
1328.51,5124.00
1329.80,4491.00
1331.10,5045.00
1332.39,4437.00
1333.68,4984.00
1334.97,4302.00
1336.27,4867.00
1337.56,4314.00
1338.85,4929.00
1340.14,4157.00
1341.42,5003.00
1342.71,4190.00
1344.00,4835.00
1345.29,4236.00
1346.57,5075.00
1347.86,4236.00
1349.15,4814.00
1350.43,4486.00
1351.71,5075.00
1353.00,4575.00
1354.28,5246.00
1355.56,4428.00
1356.85,5047.00
1358.13,4548.00
1359.41,4843.00
1360.69,4402.00
1361.97,4850.00
1363.25,4332.00
1364.52,4883.00
1365.80,4298.00
1367.08,4865.00
1368.35,4439.00
1369.63,4869.00
1370.91,4232.00
1372.18,4897.00
1373.45,4300.00
1374.73,4742.00
1376.00,4345.00
1377.27,4978.00
1378.54,4255.00
1379.82,4790.00
1381.09,4246.00
1382.36,4987.00
1383.63,4525.00
1384.89,5054.00
1386.16,4628.00
1387.43,5124.00
1388.70,4708.00
1389.96,5251.00
1391.23,5142.00
1392.50,5892.00
1393.76,5556.00
1395.02,6208.00
1396.29,5957.00
1397.55,6575.00
1398.81,6200.00
1400.08,7158.00
1401.34,6429.00
1402.60,7169.00
1403.86,6776.00
1405.12,7327.00
1406.38,6879.00
1407.63,7471.00
1408.89,7124.00
1410.15,7844.00
1411.41,7770.00
1412.66,8832.00
1413.92,8394.00
1415.17,9507.00
1416.43,9590.00
1417.68,10614.00
1418.93,10416.00
1420.19,11484.00
1421.44,11368.00
1422.69,12106.00
1423.94,11459.00
1425.19,12426.00
1426.44,12115.00
1427.69,12570.00
1428.94,11913.00
1430.19,12498.00
1431.43,11817.00
1432.68,12654.00
1433.93,11941.00
1435.17,12905.00
1436.42,12053.00
1437.66,12728.00
1438.91,12579.00
1440.15,13377.00
1441.39,12476.00
1442.64,13247.00
1443.88,12747.00
1445.12,13334.00
1446.36,12878.00
1447.60,13116.00
1448.84,12438.00
1450.08,12870.00
1451.32,11993.00
1452.56,12349.00
1453.79,11338.00
1455.03,11887.00
1456.27,10871.00
1457.50,11126.00
1458.74,10583.00
1459.97,10549.00
1461.21,9711.00
1462.44,10188.00
1463.67,9349.00
1464.91,9690.00
1466.14,9091.00
1467.37,8902.00
1468.60,8436.00
1469.83,8602.00
1471.06,7779.00
1472.29,7996.00
1473.52,7318.00
1474.75,7730.00
1475.97,6968.00
1477.20,7165.00
1478.43,6667.00
1479.65,6775.00
1480.88,6198.00
1482.10,6433.00
1483.33,5936.00
1484.55,6014.00
1485.77,5558.00
1487.00,5828.00
1488.22,5202.00
1489.44,5730.00
1490.66,5147.00
1491.88,5328.00
1493.10,4961.00
1494.32,5210.00
1495.54,4904.00
1496.76,5078.00
1497.97,4519.00
1499.19,5055.00
1500.41,4438.00
1501.62,4966.00
1502.84,4202.00
1504.05,4885.00
1505.27,4255.00
1506.48,4511.00
1507.70,4196.00
1508.91,4540.00
1510.12,4038.00
1511.33,4445.00
1512.54,4162.00
1513.75,4619.00
1514.96,3885.00
1516.17,4467.00
1517.38,3883.00
1518.59,4432.00
1519.80,3960.00
1521.01,4358.00
1522.21,3944.00
1523.42,4303.00
1524.63,3807.00
1525.83,4456.00
1527.04,3747.00
1528.24,4466.00
1529.44,3709.00
1530.65,4294.00
1531.85,3794.00
1533.05,4389.00
1534.25,3637.00
1535.45,4283.00
1536.65,3705.00
1537.85,4096.00
1539.05,3540.00
1540.25,4014.00
1541.45,3618.00
1542.65,3992.00
1543.85,3761.00
1545.04,3857.00
1546.24,3524.00
1547.44,3998.00
1548.63,3677.00
1549.83,4124.00
1551.02,3641.00
1552.21,4017.00
1553.41,3469.00
1554.60,3919.00
1555.79,3302.00
1556.98,3780.00
1558.17,3401.00
1559.37,3693.00
1560.56,3381.00
1561.74,3752.00
1562.93,3227.00
1564.12,3866.00
1565.31,3215.00
1566.50,3777.00
1567.68,3242.00
1568.87,3769.00
1570.06,3250.00
1571.24,3670.00
1572.43,3099.00
1573.61,3729.00
1574.80,3043.00
1575.98,3889.00
1577.16,3234.00
1578.34,3588.00
1579.53,3042.00
1580.71,3461.00
1581.89,3017.00
1583.07,3715.00
1584.25,3024.00
1585.43,3506.00
1586.61,3090.00
1587.78,3342.00
1588.96,3002.00
1590.14,3599.00
1591.32,2981.00
1592.49,3486.00
1593.67,3166.00
1594.84,3429.00
1596.02,2838.00
1597.19,3460.00
1598.37,2997.00
1599.54,3237.00
1600.71,3013.00
1601.88,3355.00
1603.06,3031.00
1604.23,3382.00
1605.40,2867.00
1606.57,3231.00
1607.74,2925.00
1608.91,3167.00
1610.07,3147.00
1611.24,3356.00
1612.41,2840.00
1613.58,3400.00
1614.74,3005.00
1615.91,3428.00
1617.08,2977.00
1618.24,3416.00
1619.41,2851.00
1620.57,3465.00
1621.73,2945.00
1622.90,3353.00
1624.06,3031.00
1625.22,3375.00
1626.38,2894.00
1627.54,3161.00
1628.70,3053.00
1629.87,3407.00
1631.02,2818.00
1632.18,3356.00
1633.34,2729.00
1634.50,3235.00
1635.66,2820.00
1636.82,3262.00
1637.97,2887.00
1639.13,3216.00
1640.28,2921.00
1641.44,3374.00
1642.59,2814.00
1643.75,3222.00
1644.90,2737.00
1646.06,3350.00
1647.21,2784.00
1648.36,3111.00
1649.51,2976.00
1650.66,3432.00
1651.81,2801.00
1652.97,3298.00
1654.11,3005.00
1655.26,3272.00
1656.41,2727.00
1657.56,3442.00
1658.71,2817.00
1659.86,3205.00
1661.00,2832.00
1662.15,3092.00
1663.30,2939.00
1664.44,3168.00
1665.59,2814.00
1666.73,3198.00
1667.88,2788.00
1669.02,3146.00
1670.16,2908.00
1671.30,3127.00
1672.45,2763.00
1673.59,3303.00
1674.73,2730.00
1675.87,3150.00
1677.01,2788.00
1678.15,3111.00
1679.29,3094.00
1680.43,3384.00
1681.57,2734.00
1682.70,3234.00
1683.84,2769.00
1684.98,3338.00
1686.12,2881.00
1687.25,3194.00
1688.39,2930.00
1689.52,3328.00
1690.66,2844.00
1691.79,3148.00
1692.92,2863.00
1694.06,3184.00
1695.19,2829.00
1696.32,3268.00
1697.45,2921.00
1698.58,3477.00
1699.72,2724.00
1700.85,3284.00
1701.98,2894.00
1703.10,3238.00
1704.23,2837.00
1705.36,3198.00
1706.49,2992.00
1707.62,3323.00
1708.74,2959.00
1709.87,3362.00
1711.00,2936.00
1712.12,3123.00
1713.25,2646.00
1714.37,3199.00
1715.50,2892.00
1716.62,3283.00
1717.74,2910.00
1718.87,3303.00
1719.99,2815.00
1721.11,3232.00
1722.23,2746.00
1723.35,3346.00
1724.47,2954.00
1725.59,3202.00
1726.71,3013.00
1727.83,3253.00
1728.95,2783.00
1730.07,3115.00
1731.19,2764.00
1732.30,3359.00
1733.42,2841.00
1734.54,3188.00
1735.65,2759.00
1736.77,3310.00
1737.88,2747.00
1739.00,3403.00
1740.11,2820.00
1741.23,3278.00
1742.34,2759.00
1743.45,3023.00
1744.56,2805.00
1745.68,3114.00
1746.79,2719.00
1747.90,3227.00
1749.01,2692.00
1750.12,3004.00
1751.23,2576.00
1752.34,3089.00
1753.45,2510.00
1754.55,3080.00
1755.66,2619.00
1756.77,3021.00
1757.88,2635.00
1758.98,3021.00
1760.09,2706.00
1761.19,3263.00
1762.30,2611.00
1763.40,3082.00
1764.51,2686.00
1765.61,3058.00
1766.71,2486.00
1767.82,2953.00
1768.92,2579.00
1770.02,3129.00
1771.12,2533.00
1772.22,3030.00
1773.32,2589.00
1774.42,3189.00
1775.52,2548.00
1776.62,2857.00
1777.72,2462.00
1778.82,2754.00
1779.92,2619.00
1781.01,2937.00
1782.11,2290.00
1783.21,2896.00
1784.30,2535.00
1785.40,2782.00
1786.50,2543.00
1787.59,2954.00
1788.68,2372.00
1789.78,2833.00
1790.87,2397.00
1791.96,2814.00
1793.06,2256.00
1794.15,2827.00
1795.24,2482.00
1796.33,2874.00
1797.42,2212.00
1798.51,2849.00
1799.60,2436.00
1800.69,2646.00
1801.78,2342.00
1802.87,2703.00
1803.96,2274.00
1805.05,2593.00
1806.13,2283.00
1807.22,2604.00
1808.31,2284.00
1809.39,2557.00
1810.48,2268.00
1811.56,2605.00
1812.65,2223.00
1813.73,2545.00
1814.82,2187.00
1815.90,2451.00
1816.98,2118.00
1818.07,2662.00
1819.15,2136.00
1820.23,2605.00
1821.31,2092.00
1822.39,2459.00
1823.47,2088.00
1824.55,2486.00
1825.63,2102.00
1826.71,2129.00
1827.79,2034.00
1828.87,2609.00
1829.95,1937.00
1831.02,2404.00
1832.10,1953.00
1833.18,2329.00
1834.25,2004.00
1835.33,2296.00
1836.40,1920.00
1837.48,2418.00
1838.55,1868.00
1839.63,2288.00
1840.70,1985.00
1841.77,2295.00
1842.85,1915.00
1843.92,2195.00
1844.99,1928.00
1846.06,2375.00
1847.13,1808.00
1848.20,2178.00
1849.28,1914.00
1850.34,1972.00
1851.41,1876.00
1852.48,2147.00
1853.55,1878.00
1854.62,1968.00
1855.69,1691.00
1856.76,2161.00
1857.82,1690.00
1858.89,2150.00
1859.95,1719.00
1861.02,2176.00
1862.09,1583.00
1863.15,2111.00
1864.21,1664.00
1865.28,1989.00
1866.34,1750.00
1867.41,2215.00
1868.47,1574.00
1869.53,2064.00
1870.59,1614.00
1871.65,2025.00
1872.71,1635.00
1873.78,1954.00
1874.84,1573.00
1875.90,1903.00
1876.96,1717.00
1878.01,1953.00
1879.07,1653.00
1880.13,1997.00
1881.19,1529.00
1882.25,1813.00
1883.30,1635.00
1884.36,1898.00
1885.42,1676.00
1886.47,2038.00
1887.53,1587.00
1888.58,1935.00
1889.64,1712.00
1890.69,1889.00
1891.74,1590.00
1892.80,1894.00
1893.85,1546.00
1894.90,1986.00
1895.96,1498.00
1897.01,2006.00
1898.06,1568.00
1899.11,2046.00
1900.16,1614.00
1901.21,1966.00
1902.26,1459.00
1903.31,1937.00
1904.36,1490.00
1905.41,1887.00
1906.45,1465.00
1907.50,1845.00
1908.55,1626.00
1909.60,1852.00
1910.64,1534.00
1911.69,1807.00
1912.73,1572.00
1913.78,1909.00
1914.82,1489.00
1915.87,1881.00
1916.91,1597.00
1917.96,1858.00
1919.00,1470.00
1920.04,1907.00
1921.08,1677.00
1922.13,1884.00
1923.17,1518.00
1924.21,1768.00
1925.25,1474.00
1926.29,1782.00
1927.33,1530.00
1928.37,1714.00
1929.41,1459.00
1930.45,1749.00
1931.49,1467.00
1932.53,1769.00
1933.56,1445.00
1934.60,1784.00
1935.64,1462.00
1936.67,1824.00
1937.71,1518.00
1938.75,1774.00
1939.78,1564.00
1940.82,1774.00
1941.85,1460.00
1942.89,1813.00
1943.92,1599.00
1944.95,1730.00
1945.99,1462.00
1947.02,1826.00
1948.05,1412.00
1949.08,1798.00
1950.11,1445.00
1951.15,1804.00
1952.18,1387.00
1953.21,1817.00
1954.24,1541.00
1955.27,1920.00
1956.30,1451.00
1957.32,1743.00
1958.35,1459.00
1959.38,1862.00
1960.41,1343.00
1961.44,1764.00
1962.46,1483.00
1963.49,1773.00
1964.51,1325.00
1965.54,1733.00
1966.57,1484.00
1967.59,1907.00
1968.62,1495.00
1969.64,1812.00
1970.66,1515.00
1971.69,1886.00
1972.71,1389.00
1973.73,1775.00
1974.75,1363.00
1975.78,1737.00
1976.80,1470.00
1977.82,1741.00
1978.84,1341.00
1979.86,1759.00
1980.88,1501.00
1981.90,1787.00
1982.92,1500.00
1983.94,1709.00
1984.96,1355.00
1985.98,1714.00
1986.99,1402.00
1988.01,1709.00
1989.03,1455.00
1990.04,1826.00
1991.06,1339.00
1992.08,1784.00
1993.09,1402.00
1994.11,1788.00
1995.12,1513.00
1996.14,1808.00
1997.15,1415.00
1998.16,1590.00
1999.18,1463.00
2000.19,1662.00
2001.20,1318.00
2002.21,1676.00
2003.23,1454.00
2004.24,1919.00
2005.25,1347.00
2006.26,1757.00
2007.27,1335.00
2008.28,1763.00
2009.29,1409.00
2010.30,1719.00
2011.31,1419.00
2012.32,1672.00
2013.32,1299.00
2014.33,1742.00
2015.34,1371.00
2016.35,1829.00
2017.35,1351.00
2018.36,1760.00
2019.36,1323.00
2020.37,1511.00
2021.38,1442.00
2022.38,1741.00
2023.38,1465.00
2024.39,1722.00
2025.39,1399.00
2026.40,1683.00
2027.40,1332.00
2028.40,1644.00
2029.40,1237.00
2030.41,1794.00
2031.41,1398.00
2032.41,1432.00
2033.41,1294.00
2034.41,1634.00
2035.41,1329.00
2036.41,1610.00
2037.41,1341.00
2038.41,1632.00
2039.41,1295.00
2040.40,1646.00
2041.40,1219.00
2042.40,1582.00
2043.40,1406.00
2044.39,1640.00
2045.39,1336.00
2046.39,1569.00
2047.38,1311.00
2048.38,1756.00
2049.37,1260.00
2050.37,1586.00
2051.36,1226.00
2052.36,1489.00
2053.35,1310.00
2054.34,1598.00
2055.34,1160.00
2056.33,1399.00
2057.32,1290.00
2058.31,1549.00
2059.30,1181.00
2060.30,1457.00
2061.29,1291.00
2062.28,1629.00
2063.27,1196.00
2064.26,1594.00
2065.25,1201.00
2066.23,1438.00
2067.22,1267.00
2068.21,1610.00
2069.20,1127.00
2070.19,1615.00
2071.17,1224.00
2072.16,1483.00
2073.15,1070.00
2074.13,1489.00
2075.12,1021.00
2076.11,1492.00
2077.09,1201.00
2078.08,1427.00
2079.06,1112.00
2080.04,1401.00
2081.03,1182.00
2082.01,1466.00
2083.00,1157.00
2083.98,1298.00
2084.96,1086.00
2085.94,1426.00
2086.92,1077.00
2087.91,1358.00
2088.89,1179.00
2089.87,1321.00
2090.85,1150.00
2091.83,1357.00
2092.81,1028.00
2093.79,1341.00
2094.77,1086.00
2095.74,1487.00
2096.72,1076.00
2097.70,1378.00
2098.68,1106.00
2099.66,1325.00
2100.63,978.00
2101.61,1360.00
2102.59,1041.00
2103.56,1449.00
2104.54,995.00
2105.51,1341.00
2106.49,1093.00
2107.46,1258.00
2108.44,959.00
2109.41,1377.00
2110.38,1085.00
2111.36,1366.00
2112.33,994.00
2113.30,1218.00
2114.27,1068.00
2115.25,1258.00
2116.22,925.00
2117.19,1268.00
2118.16,972.00
2119.13,1301.00
2120.10,940.00
2121.07,1217.00
2122.04,888.00
2123.01,1217.00
2123.98,982.00
2124.95,1249.00
2125.91,860.00
2126.88,1115.00
2127.85,1021.00
2128.82,1161.00
2129.78,974.00
2130.75,1179.00
2131.72,861.00
2132.68,1254.00
2133.65,867.00
2134.61,1326.00
2135.58,1004.00
2136.54,1227.00
2137.51,948.00
2138.47,1274.00
2139.43,974.00
2140.40,1323.00
2141.36,880.00
2142.32,1331.00
2143.29,883.00
2144.25,1228.00
2145.21,933.00
2146.17,984.00
2147.13,939.00
2148.09,1221.00
2149.05,876.00
2150.01,1190.00
2150.97,1029.00
2151.93,1216.00
2152.89,890.00
2153.85,1164.00
2154.81,902.00
2155.76,1204.00
2156.72,887.00
2157.68,1187.00
2158.64,951.00
2159.59,1143.00
2160.55,928.00
2161.51,1281.00
2162.46,855.00
2163.42,1198.00
2164.37,931.00
2165.33,1181.00
2166.28,882.00
2167.24,1222.00
2168.19,931.00
2169.14,1245.00
2170.10,945.00
2171.05,1193.00
2172.00,898.00
2172.95,1347.00
2173.91,1013.00
2174.86,1323.00
2175.81,918.00
2176.76,1289.00
2177.71,997.00
2178.66,1367.00
2179.61,1059.00
2180.56,1207.00
2181.51,1045.00
2182.46,1243.00
2183.41,944.00
2184.36,1334.00
2185.30,889.00
2186.25,1207.00
2187.20,1003.00
2188.15,1255.00
2189.09,960.00
2190.04,1309.00
2190.99,1004.00
2191.93,1248.00
2192.88,977.00
2193.82,1340.00
2194.77,967.00
2195.71,1193.00
2196.66,851.00
2197.60,1234.00
2198.54,929.00
2199.49,1313.00
2200.43,897.00
2201.37,1102.00
2202.32,982.00
2203.26,1309.00
2204.20,910.00
2205.14,1226.00
2206.08,996.00
2207.02,1242.00
2207.96,753.00
2208.90,1332.00
2209.84,867.00
2210.78,1036.00
2211.72,1022.00
2212.66,1182.00
2213.60,977.00
2214.54,1186.00
2215.48,996.00
2216.42,1167.00
2217.35,1014.00
2218.29,1238.00
2219.23,1030.00
2220.16,1254.00
2221.10,940.00
2222.04,1191.00
2222.97,983.00
2223.91,1312.00
2224.84,949.00
2225.78,1256.00
2226.71,924.00
2227.65,1247.00
2228.58,1091.00
2229.51,1223.00
2230.45,997.00
2231.38,1310.00
2232.31,959.00
2233.24,1321.00
2234.18,944.00
2235.11,1350.00
2236.04,938.00
2236.97,1229.00
2237.90,999.00
2238.83,1271.00
2239.76,977.00
2240.69,1320.00
2241.62,939.00
2242.55,1361.00
2243.48,901.00
2244.41,1292.00
2245.34,1118.00
2246.27,1254.00
2247.19,1056.00
2248.12,1264.00
2249.05,856.00
2249.98,1284.00
2250.90,1041.00
2251.83,1282.00
2252.75,899.00
2253.68,1257.00
2254.61,986.00
2255.53,1233.00
2256.46,963.00
2257.38,1275.00
2258.31,898.00
2259.23,1280.00
2260.15,896.00
2261.08,1376.00
2262.00,950.00
2262.92,1312.00
2263.85,902.00
2264.77,1339.00
2265.69,931.00
2266.61,1157.00
2267.53,929.00
2268.45,1170.00
2269.37,901.00
2270.30,1268.00
2271.22,869.00
2272.14,1306.00
2273.05,974.00
2273.97,1261.00
2274.89,928.00
2275.81,1179.00
2276.73,865.00
2277.65,1183.00
2278.57,1002.00
2279.48,1304.00
2280.40,1022.00
2281.32,1210.00
2282.24,865.00
2283.15,1232.00
2284.07,814.00
2284.98,1249.00
2285.90,965.00
2286.82,1307.00
2287.73,1006.00
2288.65,1226.00
2289.56,953.00
2290.47,1264.00
2291.39,1011.00
2292.30,1282.00
2293.21,863.00
2294.13,1089.00
2295.04,965.00
2295.95,1155.00
2296.87,882.00
2297.78,1225.00
2298.69,881.00
2299.60,1121.00
2300.51,822.00
2301.42,1045.00
2302.33,927.00
2303.24,1256.00
2304.15,932.00
2305.06,1139.00
2305.97,797.00
2306.88,1262.00
2307.79,825.00
2308.70,1162.00
2309.61,937.00
2310.51,1051.00
2311.42,825.00
2312.33,1202.00
2313.24,835.00
2314.14,1185.00
2315.05,855.00
2315.96,1131.00
2316.86,903.00
2317.77,1145.00
2318.67,860.00
2319.58,1170.00
2320.48,804.00
2321.39,979.00
2322.29,821.00
2323.20,1105.00
2324.10,839.00
2325.00,1097.00
2325.91,830.00
2326.81,1052.00
2327.71,948.00
2328.62,1083.00
2329.52,788.00
2330.42,1152.00
2331.32,808.00
2332.22,1189.00
2333.12,840.00
2334.03,1025.00
2334.93,784.00
2335.83,1054.00
2336.73,799.00
2337.63,1002.00
2338.53,743.00
2339.42,1094.00
2340.32,704.00
2341.22,1045.00
2342.12,822.00
2343.02,1072.00
2343.92,721.00
2344.81,939.00
2345.71,775.00
2346.61,1043.00
2347.51,729.00
2348.40,1094.00
2349.30,796.00
2350.19,1041.00
2351.09,780.00
2351.98,1087.00
2352.88,783.00
2353.77,1060.00
2354.67,715.00
2355.56,900.00
2356.46,719.00
2357.35,1018.00
2358.25,829.00
2359.14,1106.00
2360.03,728.00
2360.92,991.00
2361.82,685.00
2362.71,918.00
2363.60,750.00
2364.49,1072.00
2365.38,779.00
2366.28,1022.00
2367.17,759.00
2368.06,1037.00
2368.95,727.00
2369.84,1068.00
2370.73,811.00
2371.62,1144.00
2372.51,749.00
2373.40,1151.00
2374.28,888.00
2375.17,979.00
2376.06,752.00
2376.95,1013.00
2377.84,720.00
2378.72,1009.00
2379.61,777.00
2380.50,1071.00
2381.39,696.00
2382.27,1116.00
2383.16,640.00
2384.04,996.00
2384.93,761.00
2385.81,993.00
2386.70,671.00
2387.59,1027.00
2388.47,682.00
2389.35,1131.00
2390.24,776.00
2391.12,877.00
2392.01,777.00
2392.89,1042.00
2393.77,685.00
2394.66,1031.00
2395.54,829.00
2396.42,1046.00
2397.30,638.00
2398.18,955.00
2399.07,672.00
2399.95,1115.00
2400.83,663.00
2401.71,1025.00
2402.59,827.00
2403.47,1136.00
2404.35,742.00
2405.23,1006.00
2406.11,710.00
2406.99,1049.00
2407.87,759.00
2408.75,968.00
2409.62,744.00
2410.50,1029.00
2411.38,743.00
2412.26,1156.00
2413.14,770.00
2414.01,1007.00
2414.89,731.00
2415.77,1128.00
2416.64,714.00
2417.52,1139.00
2418.40,808.00
2419.27,996.00
2420.15,777.00
2421.02,1086.00
2421.90,823.00
2422.77,979.00
2423.65,765.00
2424.52,989.00
2425.40,771.00
2426.27,1136.00
2427.14,822.00
2428.02,1104.00
2428.89,846.00
2429.76,1132.00
2430.64,811.00
2431.51,1002.00
2432.38,751.00
2433.25,1052.00
2434.12,796.00
2434.99,1036.00
2435.87,932.00
2436.74,974.00
2437.61,834.00
2438.48,1118.00
2439.35,891.00
2440.22,1158.00
2441.09,785.00
2441.96,1124.00
2442.83,813.00
2443.69,1099.00
2444.56,695.00
2445.43,1048.00
2446.30,681.00
2447.17,1012.00
2448.04,716.00
2448.90,970.00
2449.77,762.00
2450.64,1036.00
2451.50,836.00
2452.37,1149.00
2453.24,767.00
2454.10,1126.00
2454.97,779.00
2455.83,1036.00
2456.70,863.00
2457.56,1126.00
2458.43,768.00
2459.29,1199.00
2460.16,820.00
2461.02,1180.00
2461.89,730.00
2462.75,1029.00
2463.61,682.00
2464.48,1076.00
2465.34,752.00
2466.20,1173.00
2467.06,789.00
2467.93,1151.00
2468.79,686.00
2469.65,1249.00
2470.51,711.00
2471.37,1106.00
2472.23,772.00
2473.10,1085.00
2473.96,808.00
2474.82,1231.00
2475.68,847.00
2476.54,1150.00
2477.40,807.00
2478.26,1092.00
2479.11,751.00
2479.97,1150.00
2480.83,816.00
2481.69,1060.00
2482.55,826.00
2483.41,1084.00
2484.26,969.00
2485.12,1115.00
2485.98,899.00
2486.84,1157.00
2487.69,736.00
2488.55,1203.00
2489.41,804.00
2490.26,1050.00
2491.12,863.00
2491.97,1119.00
2492.83,834.00
2493.68,1188.00
2494.54,728.00
2495.39,1122.00
2496.25,727.00
2497.10,1282.00
2497.96,796.00
2498.81,1175.00
2499.67,818.00
2500.52,1016.00
2501.37,798.00
2502.22,1153.00
2503.08,843.00
2503.93,1196.00
2504.78,778.00
2505.63,1179.00
2506.49,811.00
2507.34,1096.00
2508.19,842.00
2509.04,1167.00
2509.89,816.00
2510.74,1142.00
2511.59,765.00
2512.44,1150.00
2513.29,899.00
2514.14,1099.00
2514.99,778.00
2515.84,1027.00
2516.69,756.00
2517.54,1136.00
2518.39,846.00
2519.24,1081.00
2520.08,779.00
2520.93,1156.00
2521.78,765.00
2522.63,1206.00
2523.48,808.00
2524.32,1153.00
2525.17,813.00
2526.02,1115.00
2526.86,765.00
2527.71,1118.00
2528.56,745.00
2529.40,1211.00
2530.25,673.00
2531.09,1125.00
2531.94,843.00
2532.78,1023.00
2533.63,669.00
2534.47,1072.00
2535.32,809.00
2536.16,1086.00
2537.00,785.00
2537.85,1111.00
2538.69,766.00
2539.53,1057.00
2540.38,834.00
2541.22,1088.00
2542.06,739.00
2542.90,1198.00
2543.75,730.00
2544.59,1189.00
2545.43,699.00
2546.27,1119.00
2547.11,751.00
2547.95,1160.00
2548.79,723.00
2549.64,1047.00
2550.48,753.00
2551.32,1123.00
2552.16,719.00
2553.00,1102.00
2553.84,796.00
2554.67,1114.00
2555.51,899.00
2556.35,1134.00
2557.19,813.00
2558.03,1074.00
2558.87,764.00
2559.71,1088.00
2560.54,694.00
2561.38,1182.00
2562.22,736.00
2563.06,1083.00
2563.89,708.00
2564.73,1189.00
2565.57,653.00
2566.40,1027.00
2567.24,795.00
2568.07,1180.00
2568.91,783.00
2569.75,1143.00
2570.58,782.00
2571.42,1099.00
2572.25,841.00
2573.09,1165.00
2573.92,826.00
2574.75,1100.00
2575.59,687.00
2576.42,1223.00
2577.26,788.00
2578.09,1075.00
2578.92,882.00
2579.76,1094.00
2580.59,787.00
2581.42,1189.00
2582.25,802.00
2583.09,1070.00
2583.92,775.00
2584.75,1167.00
2585.58,775.00
2586.41,1215.00
2587.24,837.00
2588.07,1182.00
2588.91,740.00
2589.74,1204.00
2590.57,778.00
2591.40,1039.00
2592.23,795.00
2593.06,1298.00
2593.89,819.00
2594.72,1069.00
2595.54,696.00
2596.37,1249.00
2597.20,807.00
2598.03,1187.00
2598.86,690.00
2599.69,1217.00
2600.52,738.00
2601.34,1245.00
2602.17,697.00
2603.00,1238.00
2603.82,817.00
2604.65,1133.00
2605.48,875.00
2606.30,1238.00
2607.13,856.00
2607.96,1287.00
2608.78,753.00
2609.61,1188.00
2610.43,787.00
2611.26,1223.00
2612.08,800.00
2612.91,1261.00
2613.73,832.00
2614.56,1218.00
2615.38,859.00
2616.21,1228.00
2617.03,840.00
2617.86,1245.00
2618.68,887.00
2619.50,1188.00
2620.33,740.00
2621.15,1127.00
2621.97,821.00
2622.79,1225.00
2623.62,775.00
2624.44,1068.00
2625.26,724.00
2626.08,1144.00
2626.90,763.00
2627.72,1192.00
2628.55,761.00
2629.37,1211.00
2630.19,820.00
2631.01,1064.00
2631.83,748.00
2632.65,1290.00
2633.47,862.00
2634.29,1220.00
2635.11,755.00
2635.93,1108.00
2636.75,908.00
2637.57,1154.00
2638.39,825.00
2639.20,1239.00
2640.02,871.00
2640.84,1252.00
2641.66,777.00
2642.48,1182.00
2643.29,860.00
2644.11,1285.00
2644.93,824.00
2645.75,1159.00
2646.56,810.00
2647.38,1179.00
2648.20,749.00
2649.01,0.00
2649.83,0.00
2650.65,0.00
2651.46,0.00
2652.28,0.00
