ENLIGHTEN Version,1.7.2
Measurement ID,20190716-221936-946803-WP-00438
Serial Number,WP-00438
Label,alkanes 4mm HDPE
Integration Time,2000
Timestamp,2019-07-16 22:19:36.946803
Note,
Temperature,-99
CCD C0,807.1400146484375
CCD C1,0.11761099845170975
CCD C2,-1.6414700439781882e-05
CCD C3,2.3293600381890656e-09
CCD Offset,0
CCD Gain,8.0
Laser Wavelength,785.0
Laser Enable,True
Laser Power,100.0
Laser Temperature,-99
Pixel Count,1952

Wavenumber,Processed
349.43,0.00
351.23,0.00
353.04,0.00
354.84,6820.00
356.64,6017.00
358.44,7231.00
360.24,5980.00
362.04,7279.00
363.84,5995.00
365.64,7219.00
367.43,5950.00
369.23,7303.00
371.02,6200.00
372.81,6979.00
374.60,6219.00
376.39,7044.00
378.18,5977.00
379.97,7083.00
381.76,6114.00
383.55,6984.00
385.33,6061.00
387.11,6956.00
388.90,5676.00
390.68,6987.00
392.46,6025.00
394.24,6957.00
396.02,5921.00
397.80,6856.00
399.58,5709.00
401.35,6911.00
403.13,5864.00
404.90,6912.00
406.68,5900.00
408.45,6908.00
410.22,6098.00
411.99,6931.00
413.76,5726.00
415.53,6840.00
417.30,5850.00
419.06,7045.00
420.83,5714.00
422.59,6824.00
424.35,5921.00
426.12,6939.00
427.88,5817.00
429.64,7036.00
431.40,5838.00
433.16,6780.00
434.91,5916.00
436.67,6806.00
438.43,6008.00
440.18,6826.00
441.93,5884.00
443.69,6812.00
445.44,5795.00
447.19,6609.00
448.94,5742.00
450.69,6537.00
452.43,5820.00
454.18,6441.00
455.92,5380.00
457.67,6537.00
459.41,5604.00
461.16,6584.00
462.90,5615.00
464.64,6440.00
466.38,5263.00
468.12,6503.00
469.85,5243.00
471.59,6327.00
473.33,5403.00
475.06,6158.00
476.80,5225.00
478.53,6333.00
480.26,5545.00
481.99,6189.00
483.72,5285.00
485.45,6256.00
487.18,5194.00
488.91,6200.00
490.63,5407.00
492.36,6017.00
494.08,5242.00
495.80,6318.00
497.53,5409.00
499.25,6073.00
500.97,5335.00
502.69,6047.00
504.41,5196.00
506.12,5922.00
507.84,5105.00
509.56,5910.00
511.27,5001.00
512.98,6057.00
514.70,5125.00
516.41,6086.00
518.12,5158.00
519.83,5914.00
521.54,5131.00
523.25,5937.00
524.95,4934.00
526.66,5723.00
528.36,5168.00
530.07,5744.00
531.77,5125.00
533.47,5776.00
535.18,4975.00
536.88,5726.00
538.58,4782.00
540.27,5769.00
541.97,4959.00
543.67,5815.00
545.36,4988.00
547.06,5691.00
548.75,4886.00
550.45,5803.00
552.14,4942.00
553.83,5688.00
555.52,4971.00
557.21,5472.00
558.90,4928.00
560.58,5670.00
562.27,4798.00
563.96,5662.00
565.64,4901.00
567.32,5693.00
569.01,4975.00
570.69,5446.00
572.37,4793.00
574.05,5705.00
575.73,4775.00
577.41,5449.00
579.08,4574.00
580.76,5605.00
582.44,4520.00
584.11,5620.00
585.78,4735.00
587.46,5544.00
589.13,4962.00
590.80,5409.00
592.47,4834.00
594.14,5479.00
595.81,4835.00
597.47,5520.00
599.14,4754.00
600.80,5641.00
602.47,4719.00
604.13,5530.00
605.79,4612.00
607.46,5534.00
609.12,4778.00
610.78,5255.00
612.44,4613.00
614.09,5417.00
615.75,4653.00
617.41,5422.00
619.06,4725.00
620.72,5519.00
622.37,4585.00
624.02,5302.00
625.67,4600.00
627.33,5360.00
628.97,4631.00
630.62,5266.00
632.27,4695.00
633.92,5304.00
635.57,4631.00
637.21,5108.00
638.86,4601.00
640.50,5313.00
642.14,4340.00
643.78,5253.00
645.42,4414.00
647.06,5381.00
648.70,4480.00
650.34,5264.00
651.98,4381.00
653.62,5202.00
655.25,4558.00
656.89,5057.00
658.52,4302.00
660.15,4893.00
661.79,4301.00
663.42,4973.00
665.05,4439.00
666.68,5060.00
668.31,4249.00
669.93,5043.00
671.56,4428.00
673.19,5123.00
674.81,4342.00
676.43,5020.00
678.06,4206.00
679.68,4878.00
681.30,4155.00
682.92,4729.00
684.54,4274.00
686.16,4938.00
687.78,4284.00
689.40,4912.00
691.01,4193.00
692.63,4911.00
694.24,4108.00
695.86,4956.00
697.47,4206.00
699.08,4905.00
700.69,4185.00
702.30,4934.00
703.91,4127.00
705.52,4798.00
707.13,4177.00
708.74,4737.00
710.34,4291.00
711.95,4817.00
713.55,4145.00
715.15,4801.00
716.76,4150.00
718.36,4852.00
719.96,4215.00
721.56,4976.00
723.16,4274.00
724.76,4811.00
726.35,4147.00
727.95,4759.00
729.55,4182.00
731.14,4846.00
732.73,4051.00
734.33,5000.00
735.92,4135.00
737.51,4827.00
739.10,4241.00
740.69,4934.00
742.28,4023.00
743.87,4885.00
745.46,4082.00
747.04,4953.00
748.63,4065.00
750.21,4997.00
751.80,3994.00
753.38,4952.00
754.96,4411.00
756.54,5011.00
758.12,4258.00
759.70,5170.00
761.28,4145.00
762.86,4857.00
764.44,4350.00
766.01,5011.00
767.59,4069.00
769.16,5178.00
770.74,4410.00
772.31,5107.00
773.88,4737.00
775.45,4926.00
777.02,4274.00
778.59,5154.00
780.16,4397.00
781.73,5303.00
783.30,4328.00
784.86,5129.00
786.43,4451.00
787.99,5191.00
789.56,4520.00
791.12,5293.00
792.68,4611.00
794.24,5065.00
795.80,4641.00
797.36,5248.00
798.92,4608.00
800.48,5442.00
802.04,4582.00
803.59,5308.00
805.15,4636.00
806.70,5301.00
808.26,4516.00
809.81,5547.00
811.36,4403.00
812.91,5443.00
814.46,4699.00
816.01,5301.00
817.56,4638.00
819.11,5591.00
820.66,4719.00
822.20,5580.00
823.75,4725.00
825.30,5715.00
826.84,4652.00
828.38,5580.00
829.93,4709.00
831.47,5735.00
833.01,4719.00
834.55,5595.00
836.09,4763.00
837.63,5809.00
839.16,4836.00
840.70,5681.00
842.24,5125.00
843.77,5718.00
845.31,5204.00
846.84,5696.00
848.37,5206.00
849.90,5930.00
851.44,5231.00
852.97,6028.00
854.50,4973.00
856.03,6073.00
857.55,5383.00
859.08,6144.00
860.61,5238.00
862.13,5844.00
863.66,5171.00
865.18,6061.00
866.70,5290.00
868.23,5969.00
869.75,5254.00
871.27,6005.00
872.79,5244.00
874.31,6101.00
875.83,5518.00
877.35,6137.00
878.86,5637.00
880.38,5917.00
881.89,5358.00
883.41,6206.00
884.92,5508.00
886.44,5987.00
887.95,5189.00
889.46,5936.00
890.97,5359.00
892.48,6022.00
893.99,5235.00
895.50,5945.00
897.01,5195.00
898.51,6065.00
900.02,5318.00
901.52,5919.00
903.03,5341.00
904.53,6118.00
906.04,5046.00
907.54,5877.00
909.04,5244.00
910.54,5886.00
912.04,5178.00
913.54,5736.00
915.04,5000.00
916.53,5751.00
918.03,4904.00
919.53,5775.00
921.02,4758.00
922.52,5783.00
924.01,4808.00
925.50,5562.00
927.00,4911.00
928.49,5578.00
929.98,4936.00
931.47,5433.00
932.96,4738.00
934.44,5526.00
935.93,4790.00
937.42,5274.00
938.90,4709.00
940.39,5464.00
941.87,4611.00
943.36,5249.00
944.84,4488.00
946.32,5201.00
947.80,4464.00
949.29,5066.00
950.77,4446.00
952.24,5202.00
953.72,4518.00
955.20,5266.00
956.68,4496.00
958.15,5224.00
959.63,4567.00
961.10,5071.00
962.58,4519.00
964.05,4973.00
965.52,4473.00
967.00,5170.00
968.47,4532.00
969.94,5085.00
971.41,4495.00
972.87,5155.00
974.34,4324.00
975.81,4976.00
977.28,4439.00
978.74,5000.00
980.21,4397.00
981.67,4909.00
983.13,4353.00
984.60,4930.00
986.06,4358.00
987.52,4965.00
988.98,4433.00
990.44,5100.00
991.90,4346.00
993.36,5199.00
994.82,4289.00
996.27,4953.00
997.73,4274.00
999.18,4983.00
1000.64,4361.00
1002.09,4955.00
1003.55,4304.00
1005.00,5076.00
1006.45,4342.00
1007.90,5018.00
1009.35,4489.00
1010.80,5019.00
1012.25,4331.00
1013.70,4979.00
1015.14,4397.00
1016.59,5201.00
1018.04,4424.00
1019.48,5341.00
1020.93,4640.00
1022.37,5446.00
1023.81,4559.00
1025.25,5283.00
1026.70,4656.00
1028.14,5453.00
1029.58,4800.00
1031.02,5640.00
1032.45,5139.00
1033.89,5998.00
1035.33,5539.00
1036.77,6610.00
1038.20,6483.00
1039.64,7870.00
1041.07,7351.00
1042.50,8630.00
1043.94,8193.00
1045.37,9181.00
1046.80,8498.00
1048.23,9429.00
1049.66,8476.00
1051.09,9232.00
1052.52,8436.00
1053.95,9388.00
1055.37,8824.00
1056.80,9487.00
1058.23,9131.00
1059.65,9793.00
1061.08,8850.00
1062.50,9992.00
1063.92,9157.00
1065.34,9721.00
1066.76,8720.00
1068.19,9427.00
1069.61,8254.00
1071.02,8859.00
1072.44,8086.00
1073.86,8583.00
1075.28,7452.00
1076.69,8165.00
1078.11,7119.00
1079.53,7911.00
1080.94,6928.00
1082.35,7649.00
1083.77,6650.00
1085.18,7301.00
1086.59,6451.00
1088.00,7091.00
1089.41,6394.00
1090.82,6913.00
1092.23,6262.00
1093.64,6645.00
1095.04,6009.00
1096.45,6709.00
1097.86,6336.00
1099.26,7026.00
1100.67,6696.00
1102.07,7932.00
1103.47,7405.00
1104.88,8797.00
1106.28,8790.00
1107.68,9750.00
1109.08,9715.00
1110.48,10819.00
1111.88,10039.00
1113.28,11088.00
1114.67,10281.00
1116.07,10715.00
1117.47,9956.00
1118.86,10689.00
1120.26,9627.00
1121.65,10576.00
1123.05,9524.00
1124.44,10631.00
1125.83,9516.00
1127.22,10252.00
1128.61,9736.00
1130.00,10225.00
1131.39,9259.00
1132.78,10206.00
1134.17,9016.00
1135.56,9631.00
1136.94,8693.00
1138.33,9022.00
1139.72,7953.00
1141.10,8418.00
1142.48,7791.00
1143.87,8111.00
1145.25,7258.00
1146.63,7814.00
1148.01,7046.00
1149.39,7926.00
1150.77,7019.00
1152.15,7559.00
1153.53,6644.00
1154.91,7209.00
1156.29,6450.00
1157.66,7174.00
1159.04,6269.00
1160.41,6795.00
1161.79,6100.00
1163.16,6871.00
1164.54,5838.00
1165.91,6493.00
1167.28,5650.00
1168.65,6348.00
1170.02,5819.00
1171.39,6295.00
1172.76,5471.00
1174.13,6389.00
1175.50,5506.00
1176.86,6190.00
1178.23,5266.00
1179.60,5955.00
1180.96,5363.00
1182.33,6042.00
1183.69,5158.00
1185.05,5731.00
1186.42,5155.00
1187.78,6023.00
1189.14,5095.00
1190.50,5752.00
1191.86,5078.00
1193.22,5537.00
1194.58,4964.00
1195.94,5592.00
1197.29,5007.00
1198.65,5704.00
1200.01,4848.00
1201.36,5404.00
1202.72,4816.00
1204.07,5304.00
1205.42,4662.00
1206.78,5375.00
1208.13,4742.00
1209.48,5221.00
1210.83,4587.00
1212.18,5547.00
1213.53,4613.00
1214.88,5356.00
1216.23,4970.00
1217.58,5488.00
1218.92,4666.00
1220.27,5338.00
1221.61,4532.00
1222.96,5221.00
1224.30,4594.00
1225.65,5118.00
1226.99,4610.00
1228.33,5167.00
1229.67,4534.00
1231.01,5203.00
1232.36,4621.00
1233.70,5113.00
1235.03,4569.00
1236.37,5246.00
1237.71,4548.00
1239.05,5136.00
1240.38,4570.00
1241.72,5189.00
1243.06,4571.00
1244.39,5196.00
1245.72,4709.00
1247.06,5183.00
1248.39,4564.00
1249.72,5289.00
1251.05,4852.00
1252.39,5274.00
1253.72,4705.00
1255.05,5487.00
1256.37,4800.00
1257.70,5620.00
1259.03,4943.00
1260.36,5487.00
1261.68,5000.00
1263.01,5866.00
1264.33,5468.00
1265.66,6432.00
1266.98,6101.00
1268.31,7104.00
1269.63,6932.00
1270.95,8383.00
1272.27,8533.00
1273.59,9554.00
1274.91,9597.00
1276.23,10752.00
1277.55,10373.00
1278.87,11225.00
1280.19,10974.00
1281.51,11170.00
1282.82,10676.00
1284.14,10917.00
1285.45,10201.00
1286.77,10901.00
1288.08,10030.00
1289.39,10595.00
1290.71,9948.00
1292.02,11129.00
1293.33,10882.00
1294.64,11036.00
1295.95,10741.00
1297.26,11282.00
1298.57,10351.00
1299.88,10882.00
1301.19,10060.00
1302.49,9965.00
1303.80,9044.00
1305.11,9211.00
1306.41,8459.00
1307.72,8589.00
1309.02,7664.00
1310.32,8148.00
1311.63,7107.00
1312.93,7423.00
1314.23,6645.00
1315.53,6711.00
1316.83,6256.00
1318.13,6554.00
1319.43,5729.00
1320.73,6116.00
1322.03,5239.00
1323.32,5819.00
1324.62,4964.00
1325.92,5461.00
1327.21,4665.00
1328.51,5059.00
1329.80,4830.00
1331.10,4993.00
1332.39,4408.00
1333.68,4915.00
1334.97,4277.00
1336.27,4857.00
1337.56,4104.00
1338.85,4799.00
1340.14,4187.00
1341.42,4625.00
1342.71,4100.00
1344.00,4780.00
1345.29,4179.00
1346.57,4763.00
1347.86,4232.00
1349.15,4844.00
1350.43,4250.00
1351.71,4881.00
1353.00,4341.00
1354.28,4767.00
1355.56,4037.00
1356.85,4919.00
1358.13,4405.00
1359.41,4780.00
1360.69,4377.00
1361.97,4719.00
1363.25,4325.00
1364.52,4730.00
1365.80,3927.00
1367.08,4550.00
1368.35,4195.00
1369.63,4842.00
1370.91,4218.00
1372.18,4805.00
1373.45,4234.00
1374.73,4545.00
1376.00,4313.00
1377.27,4979.00
1378.54,4207.00
1379.82,4669.00
1381.09,4222.00
1382.36,4722.00
1383.63,4224.00
1384.89,4977.00
1386.16,4402.00
1387.43,4968.00
1388.70,4744.00
1389.96,5476.00
1391.23,4987.00
1392.50,5774.00
1393.76,5397.00
1395.02,6260.00
1396.29,6136.00
1397.55,7019.00
1398.81,6522.00
1400.08,7275.00
1401.34,6851.00
1402.60,7711.00
1403.86,7158.00
1405.12,8089.00
1406.38,7533.00
1407.63,8225.00
1408.89,7931.00
1410.15,8521.00
1411.41,8422.00
1412.66,9786.00
1413.92,9765.00
1415.17,10898.00
1416.43,11052.00
1417.68,12037.00
1418.93,12220.00
1420.19,13441.00
1421.44,13379.00
1422.69,14294.00
1423.94,14086.00
1425.19,14520.00
1426.44,14459.00
1427.69,14999.00
1428.94,14497.00
1430.19,15365.00
1431.43,14757.00
1432.68,15298.00
1433.93,14825.00
1435.17,15353.00
1436.42,15249.00
1437.66,16059.00
1438.91,15747.00
1440.15,16545.00
1441.39,15992.00
1442.64,16788.00
1443.88,16292.00
1445.12,16591.00
1446.36,15972.00
1447.60,16587.00
1448.84,15928.00
1450.08,15634.00
1451.32,15345.00
1452.56,15011.00
1453.79,14135.00
1455.03,14577.00
1456.27,13609.00
1457.50,13497.00
1458.74,12977.00
1459.97,13025.00
1461.21,12151.00
1462.44,12531.00
1463.67,11599.00
1464.91,12068.00
1466.14,10748.00
1467.37,11147.00
1468.60,10110.00
1469.83,10394.00
1471.06,9579.00
1472.29,9755.00
1473.52,8788.00
1474.75,9052.00
1475.97,7945.00
1477.20,8125.00
1478.43,7481.00
1479.65,7688.00
1480.88,6747.00
1482.10,6960.00
1483.33,6244.00
1484.55,6574.00
1485.77,5957.00
1487.00,6380.00
1488.22,5681.00
1489.44,5859.00
1490.66,5239.00
1491.88,5807.00
1493.10,5126.00
1494.32,5200.00
1495.54,4947.00
1496.76,5093.00
1497.97,4570.00
1499.19,4961.00
1500.41,4428.00
1501.62,4848.00
1502.84,4131.00
1504.05,4750.00
1505.27,4052.00
1506.48,4444.00
1507.70,4034.00
1508.91,4508.00
1510.12,3744.00
1511.33,4675.00
1512.54,3832.00
1513.75,4418.00
1514.96,3864.00
1516.17,4336.00
1517.38,3735.00
1518.59,4387.00
1519.80,3591.00
1521.01,4344.00
1522.21,3709.00
1523.42,4307.00
1524.63,3656.00
1525.83,4176.00
1527.04,3589.00
1528.24,4081.00
1529.44,3497.00
1530.65,4195.00
1531.85,3430.00
1533.05,3998.00
1534.25,3491.00
1535.45,3893.00
1536.65,3486.00
1537.85,3821.00
1539.05,3375.00
1540.25,3946.00
1541.45,3349.00
1542.65,4013.00
1543.85,3462.00
1545.04,3882.00
1546.24,3313.00
1547.44,4046.00
1548.63,3455.00
1549.83,3875.00
1551.02,3303.00
1552.21,3834.00
1553.41,3229.00
1554.60,3678.00
1555.79,3142.00
1556.98,3702.00
1558.17,3163.00
1559.37,3831.00
1560.56,3144.00
1561.74,3606.00
1562.93,3068.00
1564.12,3672.00
1565.31,2956.00
1566.50,3442.00
1567.68,3006.00
1568.87,3414.00
1570.06,3095.00
1571.24,3476.00
1572.43,3046.00
1573.61,3303.00
1574.80,2995.00
1575.98,3482.00
1577.16,2878.00
1578.34,3584.00
1579.53,3003.00
1580.71,3500.00
1581.89,2933.00
1583.07,3343.00
1584.25,2934.00
1585.43,3203.00
1586.61,2928.00
1587.78,3283.00
1588.96,2958.00
1590.14,3389.00
1591.32,2966.00
1592.49,3423.00
1593.67,2998.00
1594.84,3295.00
1596.02,2815.00
1597.19,3316.00
1598.37,2851.00
1599.54,3361.00
1600.71,2767.00
1601.88,3239.00
1603.06,2842.00
1604.23,3115.00
1605.40,2859.00
1606.57,3204.00
1607.74,2738.00
1608.91,3271.00
1610.07,2753.00
1611.24,3154.00
1612.41,2821.00
1613.58,3237.00
1614.74,2636.00
1615.91,3218.00
1617.08,2707.00
1618.24,3257.00
1619.41,2759.00
1620.57,3333.00
1621.73,2912.00
1622.90,3058.00
1624.06,2726.00
1625.22,3102.00
1626.38,2699.00
1627.54,3284.00
1628.70,2744.00
1629.87,3346.00
1631.02,2669.00
1632.18,3063.00
1633.34,2854.00
1634.50,3242.00
1635.66,2569.00
1636.82,3265.00
1637.97,2796.00
1639.13,3012.00
1640.28,2712.00
1641.44,3024.00
1642.59,2686.00
1643.75,3087.00
1644.90,2745.00
1646.06,3069.00
1647.21,2607.00
1648.36,3128.00
1649.51,2804.00
1650.66,3069.00
1651.81,2547.00
1652.97,3004.00
1654.11,2639.00
1655.26,3128.00
1656.41,2715.00
1657.56,3112.00
1658.71,2559.00
1659.86,2881.00
1661.00,2601.00
1662.15,3052.00
1663.30,2592.00
1664.44,3097.00
1665.59,2788.00
1666.73,2922.00
1667.88,2618.00
1669.02,3041.00
1670.16,2431.00
1671.30,2842.00
1672.45,2641.00
1673.59,3134.00
1674.73,2515.00
1675.87,2851.00
1677.01,2426.00
1678.15,2949.00
1679.29,2412.00
1680.43,2982.00
1681.57,2544.00
1682.70,3192.00
1683.84,2473.00
1684.98,3116.00
1686.12,2620.00
1687.25,3068.00
1688.39,2585.00
1689.52,3251.00
1690.66,2778.00
1691.79,3168.00
1692.92,2436.00
1694.06,3037.00
1695.19,2530.00
1696.32,3094.00
1697.45,2757.00
1698.58,3179.00
1699.72,2555.00
1700.85,3004.00
1701.98,2724.00
1703.10,3045.00
1704.23,2425.00
1705.36,3102.00
1706.49,2735.00
1707.62,3018.00
1708.74,2643.00
1709.87,3243.00
1711.00,2591.00
1712.12,2928.00
1713.25,2584.00
1714.37,2862.00
1715.50,2582.00
1716.62,3165.00
1717.74,2759.00
1718.87,3015.00
1719.99,2640.00
1721.11,3131.00
1722.23,2566.00
1723.35,3045.00
1724.47,2594.00
1725.59,3089.00
1726.71,2626.00
1727.83,2935.00
1728.95,2621.00
1730.07,2968.00
1731.19,2680.00
1732.30,2944.00
1733.42,2711.00
1734.54,3005.00
1735.65,2543.00
1736.77,3088.00
1737.88,2753.00
1739.00,3036.00
1740.11,2549.00
1741.23,3069.00
1742.34,2436.00
1743.45,3044.00
1744.56,2669.00
1745.68,3238.00
1746.79,2511.00
1747.90,3279.00
1749.01,2716.00
1750.12,2942.00
1751.23,2582.00
1752.34,2904.00
1753.45,2620.00
1754.55,3010.00
1755.66,2540.00
1756.77,2946.00
1757.88,2402.00
1758.98,2958.00
1760.09,2490.00
1761.19,2885.00
1762.30,2410.00
1763.40,2838.00
1764.51,2450.00
1765.61,3113.00
1766.71,2426.00
1767.82,2856.00
1768.92,2511.00
1770.02,2822.00
1771.12,2462.00
1772.22,2966.00
1773.32,2394.00
1774.42,2823.00
1775.52,2406.00
1776.62,2813.00
1777.72,2394.00
1778.82,2822.00
1779.92,2383.00
1781.01,2823.00
1782.11,2200.00
1783.21,2812.00
1784.30,2249.00
1785.40,2731.00
1786.50,2271.00
1787.59,2731.00
1788.68,2420.00
1789.78,2716.00
1790.87,2276.00
1791.96,2593.00
1793.06,2184.00
1794.15,2721.00
1795.24,2225.00
1796.33,2714.00
1797.42,2203.00
1798.51,2746.00
1799.60,2214.00
1800.69,2594.00
1801.78,2140.00
1802.87,2537.00
1803.96,2247.00
1805.05,2477.00
1806.13,2191.00
1807.22,2550.00
1808.31,2187.00
1809.39,2488.00
1810.48,2027.00
1811.56,2518.00
1812.65,2136.00
1813.73,2518.00
1814.82,2061.00
1815.90,2451.00
1816.98,1996.00
1818.07,2273.00
1819.15,2115.00
1820.23,2427.00
1821.31,2172.00
1822.39,2320.00
1823.47,1992.00
1824.55,2381.00
1825.63,1911.00
1826.71,2206.00
1827.79,2034.00
1828.87,2208.00
1829.95,1903.00
1831.02,2143.00
1832.10,1872.00
1833.18,2246.00
1834.25,1758.00
1835.33,2333.00
1836.40,1769.00
1837.48,2278.00
1838.55,1809.00
1839.63,2276.00
1840.70,1875.00
1841.77,2175.00
1842.85,1834.00
1843.92,2315.00
1844.99,1783.00
1846.06,2178.00
1847.13,1625.00
1848.20,2148.00
1849.28,1749.00
1850.34,2034.00
1851.41,1778.00
1852.48,2077.00
1853.55,1645.00
1854.62,2009.00
1855.69,1719.00
1856.76,1980.00
1857.82,1671.00
1858.89,2072.00
1859.95,1711.00
1861.02,2106.00
1862.09,1651.00
1863.15,1974.00
1864.21,1557.00
1865.28,2044.00
1866.34,1522.00
1867.41,1958.00
1868.47,1631.00
1869.53,1867.00
1870.59,1505.00
1871.65,1816.00
1872.71,1650.00
1873.78,2033.00
1874.84,1475.00
1875.90,1993.00
1876.96,1590.00
1878.01,1793.00
1879.07,1539.00
1880.13,1849.00
1881.19,1596.00
1882.25,1841.00
1883.30,1575.00
1884.36,2048.00
1885.42,1584.00
1886.47,1809.00
1887.53,1520.00
1888.58,1898.00
1889.64,1492.00
1890.69,1870.00
1891.74,1429.00
1892.80,1844.00
1893.85,1552.00
1894.90,1988.00
1895.96,1449.00
1897.01,1870.00
1898.06,1442.00
1899.11,1884.00
1900.16,1421.00
1901.21,1900.00
1902.26,1454.00
1903.31,1805.00
1904.36,1416.00
1905.41,1822.00
1906.45,1485.00
1907.50,1851.00
1908.55,1575.00
1909.60,1688.00
1910.64,1441.00
1911.69,1926.00
1912.73,1597.00
1913.78,1938.00
1914.82,1621.00
1915.87,1845.00
1916.91,1607.00
1917.96,1705.00
1919.00,1372.00
1920.04,1989.00
1921.08,1374.00
1922.13,1836.00
1923.17,1526.00
1924.21,1908.00
1925.25,1351.00
1926.29,1794.00
1927.33,1379.00
1928.37,1874.00
1929.41,1277.00
1930.45,1838.00
1931.49,1497.00
1932.53,1770.00
1933.56,1409.00
1934.60,1690.00
1935.64,1416.00
1936.67,1778.00
1937.71,1499.00
1938.75,1741.00
1939.78,1424.00
1940.82,1806.00
1941.85,1268.00
1942.89,1790.00
1943.92,1456.00
1944.95,1812.00
1945.99,1246.00
1947.02,1790.00
1948.05,1358.00
1949.08,1723.00
1950.11,1330.00
1951.15,1714.00
1952.18,1481.00
1953.21,1749.00
1954.24,1445.00
1955.27,1796.00
1956.30,1363.00
1957.32,1772.00
1958.35,1405.00
1959.38,1728.00
1960.41,1382.00
1961.44,1638.00
1962.46,1462.00
1963.49,1759.00
1964.51,1404.00
1965.54,1888.00
1966.57,1381.00
1967.59,1620.00
1968.62,1238.00
1969.64,1736.00
1970.66,1404.00
1971.69,1742.00
1972.71,1440.00
1973.73,1855.00
1974.75,1381.00
1975.78,1808.00
1976.80,1364.00
1977.82,1740.00
1978.84,1250.00
1979.86,1673.00
1980.88,1361.00
1981.90,1683.00
1982.92,1372.00
1983.94,1692.00
1984.96,1217.00
1985.98,1604.00
1986.99,1353.00
1988.01,1781.00
1989.03,1357.00
1990.04,1652.00
1991.06,1243.00
1992.08,1683.00
1993.09,1170.00
1994.11,1623.00
1995.12,1342.00
1996.14,1805.00
1997.15,1338.00
1998.16,1713.00
1999.18,1283.00
2000.19,1610.00
2001.20,1445.00
2002.21,1733.00
2003.23,1330.00
2004.24,1796.00
2005.25,1302.00
2006.26,1652.00
2007.27,1354.00
2008.28,1796.00
2009.29,1308.00
2010.30,1752.00
2011.31,1328.00
2012.32,1614.00
2013.32,1291.00
2014.33,1726.00
2015.34,1416.00
2016.35,1652.00
2017.35,1368.00
2018.36,1724.00
2019.36,1489.00
2020.37,1656.00
2021.38,1399.00
2022.38,1577.00
2023.38,1479.00
2024.39,1688.00
2025.39,1361.00
2026.40,1699.00
2027.40,1265.00
2028.40,1755.00
2029.40,1385.00
2030.41,1726.00
2031.41,1413.00
2032.41,1580.00
2033.41,1428.00
2034.41,1671.00
2035.41,1342.00
2036.41,1688.00
2037.41,1380.00
2038.41,1813.00
2039.41,1335.00
2040.40,1606.00
2041.40,1240.00
2042.40,1670.00
2043.40,1361.00
2044.39,1497.00
2045.39,1320.00
2046.39,1717.00
2047.38,1247.00
2048.38,1616.00
2049.37,1283.00
2050.37,1646.00
2051.36,1356.00
2052.36,1808.00
2053.35,1217.00
2054.34,1571.00
2055.34,1306.00
2056.33,1452.00
2057.32,1303.00
2058.31,1571.00
2059.30,1379.00
2060.30,1597.00
2061.29,1305.00
2062.28,1662.00
2063.27,1266.00
2064.26,1610.00
2065.25,1336.00
2066.23,1653.00
2067.22,1174.00
2068.21,1576.00
2069.20,1220.00
2070.19,1603.00
2071.17,1199.00
2072.16,1615.00
2073.15,1184.00
2074.13,1497.00
2075.12,1384.00
2076.11,1594.00
2077.09,1257.00
2078.08,1536.00
2079.06,1204.00
2080.04,1552.00
2081.03,1151.00
2082.01,1623.00
2083.00,1177.00
2083.98,1512.00
2084.96,1128.00
2085.94,1525.00
2086.92,1220.00
2087.91,1547.00
2088.89,1190.00
2089.87,1461.00
2090.85,1188.00
2091.83,1253.00
2092.81,1124.00
2093.79,1413.00
2094.77,1146.00
2095.74,1478.00
2096.72,1085.00
2097.70,1459.00
2098.68,1273.00
2099.66,1497.00
2100.63,1189.00
2101.61,1454.00
2102.59,1164.00
2103.56,1527.00
2104.54,1062.00
2105.51,1417.00
2106.49,1117.00
2107.46,1372.00
2108.44,1091.00
2109.41,1357.00
2110.38,1022.00
2111.36,1537.00
2112.33,1208.00
2113.30,1508.00
2114.27,1039.00
2115.25,1332.00
2116.22,1102.00
2117.19,1416.00
2118.16,1271.00
2119.13,1490.00
2120.10,1132.00
2121.07,1408.00
2122.04,1058.00
2123.01,1278.00
2123.98,1199.00
2124.95,1411.00
2125.91,1025.00
2126.88,1401.00
2127.85,988.00
2128.82,1413.00
2129.78,1067.00
2130.75,1367.00
2131.72,1076.00
2132.68,1391.00
2133.65,875.00
2134.61,1258.00
2135.58,1048.00
2136.54,1312.00
2137.51,894.00
2138.47,1341.00
2139.43,1039.00
2140.40,1378.00
2141.36,1036.00
2142.32,1368.00
2143.29,1007.00
2144.25,1297.00
2145.21,935.00
2146.17,1297.00
2147.13,1077.00
2148.09,1368.00
2149.05,990.00
2150.01,1404.00
2150.97,1021.00
2151.93,1251.00
2152.89,959.00
2153.85,1440.00
2154.81,943.00
2155.76,1478.00
2156.72,973.00
2157.68,1396.00
2158.64,1027.00
2159.59,1346.00
2160.55,1004.00
2161.51,1348.00
2162.46,1074.00
2163.42,1235.00
2164.37,1132.00
2165.33,1347.00
2166.28,938.00
2167.24,1349.00
2168.19,1049.00
2169.14,1323.00
2170.10,1062.00
2171.05,1342.00
2172.00,1199.00
2172.95,1448.00
2173.91,1079.00
2174.86,1378.00
2175.81,1027.00
2176.76,1528.00
2177.71,1103.00
2178.66,1560.00
2179.61,1221.00
2180.56,1448.00
2181.51,1157.00
2182.46,1386.00
2183.41,1127.00
2184.36,1505.00
2185.30,963.00
2186.25,1370.00
2187.20,954.00
2188.15,1458.00
2189.09,1127.00
2190.04,1266.00
2190.99,1062.00
2191.93,1376.00
2192.88,1186.00
2193.82,1315.00
2194.77,1159.00
2195.71,1435.00
2196.66,1021.00
2197.60,1303.00
2198.54,998.00
2199.49,1405.00
2200.43,985.00
2201.37,1415.00
2202.32,1111.00
2203.26,1390.00
2204.20,998.00
2205.14,1474.00
2206.08,1195.00
2207.02,1392.00
2207.96,953.00
2208.90,1397.00
2209.84,1064.00
2210.78,1346.00
2211.72,1074.00
2212.66,1381.00
2213.60,1029.00
2214.54,1291.00
2215.48,1055.00
2216.42,1512.00
2217.35,1018.00
2218.29,1326.00
2219.23,1040.00
2220.16,1373.00
2221.10,971.00
2222.04,1441.00
2222.97,1076.00
2223.91,1381.00
2224.84,1091.00
2225.78,1423.00
2226.71,1125.00
2227.65,1399.00
2228.58,1258.00
2229.51,1350.00
2230.45,1027.00
2231.38,1471.00
2232.31,1084.00
2233.24,1274.00
2234.18,1076.00
2235.11,1598.00
2236.04,1106.00
2236.97,1580.00
2237.90,1109.00
2238.83,1421.00
2239.76,1171.00
2240.69,1453.00
2241.62,1131.00
2242.55,1470.00
2243.48,1127.00
2244.41,1407.00
2245.34,1250.00
2246.27,1538.00
2247.19,1160.00
2248.12,1472.00
2249.05,979.00
2249.98,1471.00
2250.90,1111.00
2251.83,1398.00
2252.75,1116.00
2253.68,1312.00
2254.61,1169.00
2255.53,1439.00
2256.46,1122.00
2257.38,1496.00
2258.31,1048.00
2259.23,1420.00
2260.15,1063.00
2261.08,1460.00
2262.00,1021.00
2262.92,1466.00
2263.85,1138.00
2264.77,1434.00
2265.69,1098.00
2266.61,1490.00
2267.53,1210.00
2268.45,1524.00
2269.37,1077.00
2270.30,1503.00
2271.22,1036.00
2272.14,1461.00
2273.05,1210.00
2273.97,1507.00
2274.89,1151.00
2275.81,1463.00
2276.73,1071.00
2277.65,1383.00
2278.57,1058.00
2279.48,1394.00
2280.40,1039.00
2281.32,1455.00
2282.24,1005.00
2283.15,1394.00
2284.07,1013.00
2284.98,1482.00
2285.90,956.00
2286.82,1320.00
2287.73,1030.00
2288.65,1436.00
2289.56,1140.00
2290.47,1413.00
2291.39,1141.00
2292.30,1401.00
2293.21,963.00
2294.13,1350.00
2295.04,1075.00
2295.95,1289.00
2296.87,1056.00
2297.78,1278.00
2298.69,908.00
2299.60,1283.00
2300.51,959.00
2301.42,1286.00
2302.33,974.00
2303.24,1310.00
2304.15,988.00
2305.06,1391.00
2305.97,1072.00
2306.88,1169.00
2307.79,1011.00
2308.70,1336.00
2309.61,897.00
2310.51,1398.00
2311.42,967.00
2312.33,1288.00
2313.24,977.00
2314.14,1188.00
2315.05,920.00
2315.96,1335.00
2316.86,1090.00
2317.77,1232.00
2318.67,1032.00
2319.58,1300.00
2320.48,966.00
2321.39,1244.00
2322.29,988.00
2323.20,1202.00
2324.10,1013.00
2325.00,1077.00
2325.91,835.00
2326.81,1189.00
2327.71,932.00
2328.62,1247.00
2329.52,933.00
2330.42,1261.00
2331.32,905.00
2332.22,1135.00
2333.12,943.00
2334.03,1119.00
2334.93,797.00
2335.83,1325.00
2336.73,882.00
2337.63,1006.00
2338.53,927.00
2339.42,1322.00
2340.32,848.00
2341.22,1091.00
2342.12,912.00
2343.02,1226.00
2343.92,839.00
2344.81,1179.00
2345.71,925.00
2346.61,1167.00
2347.51,738.00
2348.40,1195.00
2349.30,790.00
2350.19,1205.00
2351.09,813.00
2351.98,1180.00
2352.88,833.00
2353.77,1223.00
2354.67,740.00
2355.56,1198.00
2356.46,844.00
2357.35,1092.00
2358.25,894.00
2359.14,1153.00
2360.03,665.00
2360.92,1171.00
2361.82,735.00
2362.71,1255.00
2363.60,796.00
2364.49,1166.00
2365.38,840.00
2366.28,1229.00
2367.17,811.00
2368.06,1237.00
2368.95,912.00
2369.84,1154.00
2370.73,887.00
2371.62,1123.00
2372.51,863.00
2373.40,1147.00
2374.28,915.00
2375.17,1181.00
2376.06,914.00
2376.95,1184.00
2377.84,864.00
2378.72,1201.00
2379.61,779.00
2380.50,1129.00
2381.39,789.00
2382.27,1192.00
2383.16,867.00
2384.04,1208.00
2384.93,708.00
2385.81,1161.00
2386.70,930.00
2387.59,1164.00
2388.47,854.00
2389.35,1272.00
2390.24,766.00
2391.12,1119.00
2392.01,838.00
2392.89,1226.00
2393.77,777.00
2394.66,1144.00
2395.54,845.00
2396.42,1132.00
2397.30,771.00
2398.18,1147.00
2399.07,806.00
2399.95,1076.00
2400.83,722.00
2401.71,1192.00
2402.59,823.00
2403.47,1176.00
2404.35,843.00
2405.23,1194.00
2406.11,829.00
2406.99,1173.00
2407.87,909.00
2408.75,1232.00
2409.62,829.00
2410.50,1219.00
2411.38,899.00
2412.26,1172.00
2413.14,858.00
2414.01,1127.00
2414.89,771.00
2415.77,1268.00
2416.64,868.00
2417.52,1257.00
2418.40,851.00
2419.27,1143.00
2420.15,851.00
2421.02,1268.00
2421.90,837.00
2422.77,1318.00
2423.65,954.00
2424.52,1171.00
2425.40,783.00
2426.27,1223.00
2427.14,890.00
2428.02,1338.00
2428.89,787.00
2429.76,1313.00
2430.64,926.00
2431.51,1273.00
2432.38,909.00
2433.25,1211.00
2434.12,936.00
2434.99,1372.00
2435.87,783.00
2436.74,1196.00
2437.61,912.00
2438.48,1238.00
2439.35,867.00
2440.22,1327.00
2441.09,855.00
2441.96,1252.00
2442.83,941.00
2443.69,1090.00
2444.56,843.00
2445.43,1269.00
2446.30,1058.00
2447.17,1246.00
2448.04,902.00
2448.90,1186.00
2449.77,873.00
2450.64,1292.00
2451.50,936.00
2452.37,1269.00
2453.24,894.00
2454.10,1291.00
2454.97,846.00
2455.83,1244.00
2456.70,929.00
2457.56,1322.00
2458.43,864.00
2459.29,1353.00
2460.16,801.00
2461.02,1238.00
2461.89,867.00
2462.75,1201.00
2463.61,767.00
2464.48,1236.00
2465.34,909.00
2466.20,1260.00
2467.06,968.00
2467.93,1294.00
2468.79,738.00
2469.65,1289.00
2470.51,872.00
2471.37,1265.00
2472.23,964.00
2473.10,1249.00
2473.96,917.00
2474.82,1260.00
2475.68,913.00
2476.54,1208.00
2477.40,992.00
2478.26,1304.00
2479.11,799.00
2479.97,1269.00
2480.83,965.00
2481.69,1247.00
2482.55,943.00
2483.41,1281.00
2484.26,1003.00
2485.12,1286.00
2485.98,874.00
2486.84,1217.00
2487.69,916.00
2488.55,1186.00
2489.41,978.00
2490.26,1281.00
2491.12,933.00
2491.97,1312.00
2492.83,973.00
2493.68,1303.00
2494.54,865.00
2495.39,1346.00
2496.25,909.00
2497.10,1484.00
2497.96,966.00
2498.81,1228.00
2499.67,951.00
2500.52,1227.00
2501.37,941.00
2502.22,1157.00
2503.08,1009.00
2503.93,1276.00
2504.78,959.00
2505.63,1276.00
2506.49,929.00
2507.34,1234.00
2508.19,940.00
2509.04,1188.00
2509.89,914.00
2510.74,1304.00
2511.59,886.00
2512.44,1317.00
2513.29,972.00
2514.14,1329.00
2514.99,1043.00
2515.84,1257.00
2516.69,844.00
2517.54,1161.00
2518.39,986.00
2519.24,1327.00
2520.08,887.00
2520.93,1279.00
2521.78,911.00
2522.63,1305.00
2523.48,915.00
2524.32,1446.00
2525.17,874.00
2526.02,1236.00
2526.86,896.00
2527.71,1361.00
2528.56,945.00
2529.40,1255.00
2530.25,916.00
2531.09,1191.00
2531.94,813.00
2532.78,1325.00
2533.63,890.00
2534.47,1112.00
2535.32,904.00
2536.16,1212.00
2537.00,939.00
2537.85,1207.00
2538.69,946.00
2539.53,1188.00
2540.38,989.00
2541.22,1290.00
2542.06,874.00
2542.90,1186.00
2543.75,934.00
2544.59,1170.00
2545.43,762.00
2546.27,1174.00
2547.11,875.00
2547.95,1288.00
2548.79,1031.00
2549.64,1229.00
2550.48,816.00
2551.32,1427.00
2552.16,909.00
2553.00,1388.00
2553.84,743.00
2554.67,1204.00
2555.51,1026.00
2556.35,1291.00
2557.19,967.00
2558.03,1149.00
2558.87,889.00
2559.71,1320.00
2560.54,873.00
2561.38,1308.00
2562.22,902.00
2563.06,1134.00
2563.89,891.00
2564.73,1280.00
2565.57,904.00
2566.40,1228.00
2567.24,853.00
2568.07,1346.00
2568.91,1003.00
2569.75,1178.00
2570.58,855.00
2571.42,1280.00
2572.25,932.00
2573.09,1242.00
2573.92,917.00
2574.75,1351.00
2575.59,888.00
2576.42,1356.00
2577.26,897.00
2578.09,1300.00
2578.92,888.00
2579.76,1271.00
2580.59,986.00
2581.42,1333.00
2582.25,892.00
2583.09,1208.00
2583.92,907.00
2584.75,1308.00
2585.58,866.00
2586.41,1316.00
2587.24,972.00
2588.07,1386.00
2588.91,766.00
2589.74,1391.00
2590.57,947.00
2591.40,1314.00
2592.23,916.00
2593.06,1255.00
2593.89,923.00
2594.72,1308.00
2595.54,930.00
2596.37,1332.00
2597.20,885.00
2598.03,1317.00
2598.86,965.00
2599.69,1406.00
2600.52,964.00
2601.34,1389.00
2602.17,1013.00
2603.00,1312.00
2603.82,904.00
2604.65,1312.00
2605.48,902.00
2606.30,1333.00
2607.13,985.00
2607.96,1517.00
2608.78,965.00
2609.61,1395.00
2610.43,963.00
2611.26,1403.00
2612.08,894.00
2612.91,1368.00
2613.73,888.00
2614.56,1352.00
2615.38,935.00
2616.21,1379.00
2617.03,834.00
2617.86,1255.00
2618.68,1103.00
2619.50,1317.00
2620.33,1029.00
2621.15,1460.00
2621.97,899.00
2622.79,1388.00
2623.62,1029.00
2624.44,1477.00
2625.26,983.00
2626.08,1311.00
2626.90,958.00
2627.72,1364.00
2628.55,911.00
2629.37,1432.00
2630.19,940.00
2631.01,1260.00
2631.83,1000.00
2632.65,1297.00
2633.47,975.00
2634.29,1403.00
2635.11,978.00
2635.93,1277.00
2636.75,1074.00
2637.57,1302.00
2638.39,841.00
2639.20,1334.00
2640.02,950.00
2640.84,1444.00
2641.66,1022.00
2642.48,1457.00
2643.29,962.00
2644.11,1429.00
2644.93,932.00
2645.75,1407.00
2646.56,904.00
2647.38,1263.00
2648.20,950.00
2649.01,0.00
2649.83,0.00
2650.65,0.00
2651.46,0.00
2652.28,0.00
