ENLIGHTEN Version,1.7.2
Measurement ID,20190716-221513-274577-WP-00438
Serial Number,WP-00438
Label,cyclohexane 2mm HDPE
Integration Time,2000
Timestamp,2019-07-16 22:15:13.274577
Note,
Temperature,-99
CCD C0,807.1400146484375
CCD C1,0.11761099845170975
CCD C2,-1.6414700439781882e-05
CCD C3,2.3293600381890656e-09
CCD Offset,0
CCD Gain,8.0
Laser Wavelength,785.0
Laser Enable,True
Laser Power,100.0
Laser Temperature,-99
Pixel Count,1952

Wavenumber,Processed
349.43,0.00
351.23,0.00
353.04,0.00
354.84,6366.00
356.64,5540.00
358.44,6515.00
360.24,5349.00
362.04,6715.00
363.84,5531.00
365.64,6584.00
367.43,5741.00
369.23,7066.00
371.02,5850.00
372.81,6685.00
374.60,5678.00
376.39,6791.00
378.18,5455.00
379.97,6861.00
381.76,5403.00
383.55,6688.00
385.33,5426.00
387.11,6584.00
388.90,5427.00
390.68,6643.00
392.46,5459.00
394.24,6430.00
396.02,5351.00
397.80,6393.00
399.58,5486.00
401.35,6382.00
403.13,5326.00
404.90,6338.00
406.68,5509.00
408.45,6550.00
410.22,5490.00
411.99,6545.00
413.76,5744.00
415.53,6345.00
417.30,5444.00
419.06,6460.00
420.83,5636.00
422.59,6544.00
424.35,5685.00
426.12,6533.00
427.88,5820.00
429.64,6650.00
431.40,5661.00
433.16,6562.00
434.91,5595.00
436.67,6374.00
438.43,5457.00
440.18,6586.00
441.93,5394.00
443.69,6493.00
445.44,5520.00
447.19,6333.00
448.94,5493.00
450.69,6353.00
452.43,5336.00
454.18,6388.00
455.92,5175.00
457.67,6185.00
459.41,5356.00
461.16,6024.00
462.90,5235.00
464.64,5959.00
466.38,5378.00
468.12,5789.00
469.85,4916.00
471.59,5984.00
473.33,4949.00
475.06,5888.00
476.80,5212.00
478.53,5740.00
480.26,5116.00
481.99,5750.00
483.72,4874.00
485.45,5798.00
487.18,5020.00
488.91,5906.00
490.63,4858.00
492.36,5556.00
494.08,4957.00
495.80,5777.00
497.53,4705.00
499.25,5696.00
500.97,4760.00
502.69,5332.00
504.41,4675.00
506.12,5818.00
507.84,4575.00
509.56,5491.00
511.27,4779.00
512.98,5520.00
514.70,4752.00
516.41,5365.00
518.12,4887.00
519.83,5394.00
521.54,4741.00
523.25,5465.00
524.95,4503.00
526.66,5206.00
528.36,4621.00
530.07,5457.00
531.77,4497.00
533.47,5373.00
535.18,4486.00
536.88,5361.00
538.58,4582.00
540.27,5277.00
541.97,4373.00
543.67,5546.00
545.36,4542.00
547.06,5414.00
548.75,4345.00
550.45,5450.00
552.14,4540.00
553.83,5194.00
555.52,4556.00
557.21,5269.00
558.90,4287.00
560.58,5239.00
562.27,4304.00
563.96,5200.00
565.64,4464.00
567.32,5145.00
569.01,4431.00
570.69,5084.00
572.37,4431.00
574.05,5256.00
575.73,4351.00
577.41,5127.00
579.08,4401.00
580.76,5202.00
582.44,4275.00
584.11,5071.00
585.78,4412.00
587.46,5020.00
589.13,4569.00
590.80,5221.00
592.47,4486.00
594.14,5160.00
595.81,4177.00
597.47,5346.00
599.14,4569.00
600.80,5265.00
602.47,4127.00
604.13,4826.00
605.79,4417.00
607.46,5261.00
609.12,4352.00
610.78,5023.00
612.44,4211.00
614.09,5023.00
615.75,4262.00
617.41,5167.00
619.06,4362.00
620.72,5058.00
622.37,4243.00
624.02,4838.00
625.67,4164.00
627.33,4899.00
628.97,4384.00
630.62,4884.00
632.27,4051.00
633.92,5115.00
635.57,4221.00
637.21,4939.00
638.86,4240.00
640.50,4831.00
642.14,4274.00
643.78,4847.00
645.42,4132.00
647.06,5107.00
648.70,4180.00
650.34,4952.00
651.98,4161.00
653.62,4719.00
655.25,4148.00
656.89,4808.00
658.52,3994.00
660.15,4815.00
661.79,4063.00
663.42,4586.00
665.05,4070.00
666.68,4766.00
668.31,3989.00
669.93,4647.00
671.56,3818.00
673.19,4434.00
674.81,4046.00
676.43,4700.00
678.06,4026.00
679.68,4605.00
681.30,3743.00
682.92,4481.00
684.54,3937.00
686.16,4560.00
687.78,3949.00
689.40,4500.00
691.01,3892.00
692.63,4543.00
694.24,3874.00
695.86,4494.00
697.47,3694.00
699.08,4712.00
700.69,3816.00
702.30,4696.00
703.91,4023.00
705.52,4525.00
707.13,3996.00
708.74,4689.00
710.34,3872.00
711.95,4785.00
713.55,3827.00
715.15,4476.00
716.76,3856.00
718.36,4623.00
719.96,3755.00
721.56,4628.00
723.16,3996.00
724.76,4453.00
726.35,3952.00
727.95,4485.00
729.55,3788.00
731.14,4771.00
732.73,3945.00
734.33,4670.00
735.92,3915.00
737.51,4461.00
739.10,4110.00
740.69,4488.00
742.28,3974.00
743.87,4407.00
745.46,3930.00
747.04,4438.00
748.63,3692.00
750.21,4576.00
751.80,3981.00
753.38,4820.00
754.96,3937.00
756.54,4589.00
758.12,4016.00
759.70,4792.00
761.28,4143.00
762.86,4905.00
764.44,3980.00
766.01,4956.00
767.59,3934.00
769.16,4728.00
770.74,4324.00
772.31,4852.00
773.88,4378.00
775.45,5096.00
777.02,4426.00
778.59,5310.00
780.16,4570.00
781.73,5682.00
783.30,4998.00
784.86,5822.00
786.43,5450.00
787.99,6347.00
789.56,5794.00
791.12,6871.00
792.68,6093.00
794.24,7034.00
795.80,6342.00
797.36,7349.00
798.92,6714.00
800.48,7374.00
802.04,6390.00
803.59,7236.00
805.15,6236.00
806.70,6822.00
808.26,6048.00
809.81,6397.00
811.36,5536.00
812.91,6128.00
814.46,5310.00
816.01,5846.00
817.56,5098.00
819.11,5865.00
820.66,4949.00
822.20,5636.00
823.75,4874.00
825.30,5624.00
826.84,4622.00
828.38,5578.00
829.93,4552.00
831.47,5227.00
833.01,4644.00
834.55,5575.00
836.09,4707.00
837.63,5533.00
839.16,4461.00
840.70,5215.00
842.24,4660.00
843.77,5329.00
845.31,4662.00
846.84,5504.00
848.37,4795.00
849.90,5311.00
851.44,4699.00
852.97,5382.00
854.50,4691.00
856.03,5612.00
857.55,4801.00
859.08,5792.00
860.61,4629.00
862.13,5527.00
863.66,4813.00
865.18,5315.00
866.70,4783.00
868.23,5543.00
869.75,4907.00
871.27,5578.00
872.79,4732.00
874.31,5503.00
875.83,4743.00
877.35,5548.00
878.86,4732.00
880.38,5486.00
881.89,4860.00
883.41,5566.00
884.92,4856.00
886.44,5476.00
887.95,4788.00
889.46,5571.00
890.97,4657.00
892.48,5798.00
893.99,4578.00
895.50,5516.00
897.01,4664.00
898.51,5513.00
900.02,4947.00
901.52,5288.00
903.03,4558.00
904.53,5264.00
906.04,4560.00
907.54,5373.00
909.04,4501.00
910.54,5334.00
912.04,4636.00
913.54,5093.00
915.04,4610.00
916.53,5066.00
918.03,4482.00
919.53,5218.00
921.02,4559.00
922.52,5437.00
924.01,4371.00
925.50,4991.00
927.00,4404.00
928.49,4993.00
929.98,4338.00
931.47,5043.00
932.96,4184.00
934.44,5172.00
935.93,4263.00
937.42,4739.00
938.90,3972.00
940.39,5139.00
941.87,4191.00
943.36,4840.00
944.84,4173.00
946.32,4747.00
947.80,4324.00
949.29,4689.00
950.77,4078.00
952.24,4911.00
953.72,4250.00
955.20,4693.00
956.68,4096.00
958.15,4641.00
959.63,4169.00
961.10,4823.00
962.58,3897.00
964.05,4797.00
965.52,4227.00
967.00,4735.00
968.47,3945.00
969.94,4769.00
971.41,3903.00
972.87,4567.00
974.34,4067.00
975.81,4630.00
977.28,4091.00
978.74,4743.00
980.21,4139.00
981.67,4734.00
983.13,4057.00
984.60,4662.00
986.06,4130.00
987.52,4611.00
988.98,4018.00
990.44,4678.00
991.90,4058.00
993.36,4892.00
994.82,4117.00
996.27,4925.00
997.73,4317.00
999.18,5034.00
1000.64,4363.00
1002.09,4795.00
1003.55,4270.00
1005.00,5035.00
1006.45,4618.00
1007.90,5133.00
1009.35,4492.00
1010.80,5471.00
1012.25,4941.00
1013.70,5255.00
1015.14,4732.00
1016.59,5510.00
1018.04,4938.00
1019.48,5823.00
1020.93,5198.00
1022.37,5858.00
1023.81,5382.00
1025.25,5867.00
1026.70,5542.00
1028.14,6086.00
1029.58,5489.00
1031.02,6069.00
1032.45,5381.00
1033.89,6471.00
1035.33,5950.00
1036.77,7005.00
1038.20,6541.00
1039.64,7645.00
1041.07,7135.00
1042.50,8063.00
1043.94,7674.00
1045.37,8497.00
1046.80,7521.00
1048.23,8062.00
1049.66,7376.00
1051.09,7959.00
1052.52,6987.00
1053.95,7823.00
1055.37,7278.00
1056.80,7737.00
1058.23,7071.00
1059.65,7874.00
1061.08,7183.00
1062.50,7674.00
1063.92,7027.00
1065.34,7728.00
1066.76,6793.00
1068.19,7195.00
1069.61,6507.00
1071.02,7079.00
1072.44,6236.00
1073.86,6665.00
1075.28,6085.00
1076.69,6520.00
1078.11,5905.00
1079.53,6326.00
1080.94,5533.00
1082.35,6207.00
1083.77,5628.00
1085.18,6031.00
1086.59,5205.00
1088.00,5926.00
1089.41,5193.00
1090.82,5893.00
1092.23,5105.00
1093.64,6111.00
1095.04,5243.00
1096.45,5889.00
1097.86,5594.00
1099.26,6308.00
1100.67,5903.00
1102.07,6922.00
1103.47,6870.00
1104.88,7842.00
1106.28,7412.00
1107.68,8483.00
1109.08,8367.00
1110.48,9092.00
1111.88,8552.00
1113.28,9128.00
1114.67,8515.00
1116.07,9074.00
1117.47,8242.00
1118.86,8465.00
1120.26,7802.00
1121.65,8236.00
1123.05,7769.00
1124.44,8350.00
1125.83,7531.00
1127.22,8230.00
1128.61,7366.00
1130.00,7986.00
1131.39,7415.00
1132.78,7950.00
1134.17,7049.00
1135.56,7544.00
1136.94,6665.00
1138.33,7353.00
1139.72,6358.00
1141.10,7007.00
1142.48,6470.00
1143.87,7058.00
1145.25,6042.00
1146.63,6819.00
1148.01,6034.00
1149.39,6856.00
1150.77,5946.00
1152.15,6456.00
1153.53,6014.00
1154.91,6394.00
1156.29,5783.00
1157.66,6385.00
1159.04,5805.00
1160.41,6144.00
1161.79,5503.00
1163.16,6018.00
1164.54,5470.00
1165.91,6048.00
1167.28,5069.00
1168.65,5916.00
1170.02,5278.00
1171.39,5900.00
1172.76,5051.00
1174.13,5921.00
1175.50,5045.00
1176.86,5697.00
1178.23,4931.00
1179.60,5581.00
1180.96,5152.00
1182.33,5431.00
1183.69,4837.00
1185.05,5505.00
1186.42,4914.00
1187.78,5625.00
1189.14,4713.00
1190.50,5321.00
1191.86,4720.00
1193.22,5227.00
1194.58,4707.00
1195.94,5325.00
1197.29,4652.00
1198.65,5245.00
1200.01,4348.00
1201.36,4997.00
1202.72,4555.00
1204.07,5073.00
1205.42,4507.00
1206.78,4868.00
1208.13,4683.00
1209.48,5126.00
1210.83,4606.00
1212.18,5023.00
1213.53,4687.00
1214.88,5083.00
1216.23,4400.00
1217.58,4858.00
1218.92,4492.00
1220.27,4987.00
1221.61,4542.00
1222.96,4976.00
1224.30,4430.00
1225.65,5008.00
1226.99,4652.00
1228.33,5139.00
1229.67,4458.00
1231.01,5042.00
1232.36,4795.00
1233.70,4949.00
1235.03,4449.00
1236.37,5173.00
1237.71,4577.00
1239.05,5296.00
1240.38,4723.00
1241.72,5337.00
1243.06,4906.00
1244.39,5462.00
1245.72,5028.00
1247.06,5523.00
1248.39,5036.00
1249.72,5668.00
1251.05,4889.00
1252.39,5620.00
1253.72,5085.00
1255.05,6081.00
1256.37,5387.00
1257.70,6182.00
1259.03,5536.00
1260.36,6028.00
1261.68,5913.00
1263.01,6546.00
1264.33,6094.00
1265.66,7081.00
1266.98,6615.00
1268.31,7815.00
1269.63,7540.00
1270.95,8516.00
1272.27,8574.00
1273.59,9660.00
1274.91,9178.00
1276.23,10152.00
1277.55,9617.00
1278.87,10240.00
1280.19,9797.00
1281.51,10310.00
1282.82,9231.00
1284.14,9655.00
1285.45,8765.00
1286.77,9394.00
1288.08,8452.00
1289.39,9071.00
1290.71,8241.00
1292.02,8864.00
1293.33,8473.00
1294.64,8848.00
1295.95,8254.00
1297.26,8707.00
1298.57,8024.00
1299.88,8538.00
1301.19,7466.00
1302.49,7796.00
1303.80,7145.00
1305.11,7460.00
1306.41,6703.00
1307.72,7113.00
1309.02,6245.00
1310.32,6641.00
1311.63,5704.00
1312.93,6273.00
1314.23,5761.00
1315.53,5910.00
1316.83,5403.00
1318.13,5750.00
1319.43,4957.00
1320.73,5587.00
1322.03,4889.00
1323.32,5304.00
1324.62,4648.00
1325.92,5296.00
1327.21,4635.00
1328.51,5154.00
1329.80,4641.00
1331.10,5155.00
1332.39,4608.00
1333.68,4955.00
1334.97,4294.00
1336.27,4951.00
1337.56,4396.00
1338.85,5174.00
1340.14,4445.00
1341.42,5003.00
1342.71,4492.00
1344.00,5020.00
1345.29,4346.00
1346.57,5049.00
1347.86,4500.00
1349.15,5243.00
1350.43,4750.00
1351.71,5036.00
1353.00,4634.00
1354.28,5104.00
1355.56,4675.00
1356.85,5215.00
1358.13,4784.00
1359.41,5176.00
1360.69,4599.00
1361.97,5111.00
1363.25,4540.00
1364.52,4998.00
1365.80,4578.00
1367.08,5058.00
1368.35,4346.00
1369.63,5068.00
1370.91,4557.00
1372.18,5124.00
1373.45,4462.00
1374.73,4957.00
1376.00,4420.00
1377.27,5084.00
1378.54,4424.00
1379.82,4997.00
1381.09,4685.00
1382.36,5148.00
1383.63,4641.00
1384.89,5187.00
1386.16,4605.00
1387.43,5446.00
1388.70,4880.00
1389.96,5749.00
1391.23,5475.00
1392.50,5924.00
1393.76,5503.00
1395.02,6403.00
1396.29,6282.00
1397.55,7009.00
1398.81,6416.00
1400.08,7364.00
1401.34,6632.00
1402.60,7608.00
1403.86,7047.00
1405.12,7882.00
1406.38,7192.00
1407.63,8187.00
1408.89,7672.00
1410.15,8434.00
1411.41,8080.00
1412.66,9113.00
1413.92,8847.00
1415.17,10169.00
1416.43,10097.00
1417.68,10980.00
1418.93,11023.00
1420.19,12283.00
1421.44,11772.00
1422.69,12649.00
1423.94,12305.00
1425.19,12981.00
1426.44,12548.00
1427.69,13264.00
1428.94,12437.00
1430.19,13122.00
1431.43,12639.00
1432.68,13231.00
1433.93,12609.00
1435.17,13573.00
1436.42,13066.00
1437.66,13690.00
1438.91,13148.00
1440.15,13741.00
1441.39,13398.00
1442.64,13960.00
1443.88,13577.00
1445.12,13890.00
1446.36,13266.00
1447.60,13732.00
1448.84,13065.00
1450.08,13305.00
1451.32,12600.00
1452.56,12801.00
1453.79,11851.00
1455.03,11995.00
1456.27,11023.00
1457.50,11173.00
1458.74,10667.00
1459.97,10751.00
1461.21,9794.00
1462.44,10372.00
1463.67,9416.00
1464.91,9803.00
1466.14,9121.00
1467.37,9116.00
1468.60,8251.00
1469.83,8692.00
1471.06,7901.00
1472.29,7862.00
1473.52,7540.00
1474.75,7886.00
1475.97,6769.00
1477.20,7224.00
1478.43,6628.00
1479.65,6801.00
1480.88,6245.00
1482.10,6464.00
1483.33,6184.00
1484.55,6112.00
1485.77,5676.00
1487.00,5844.00
1488.22,5272.00
1489.44,5947.00
1490.66,5265.00
1491.88,5579.00
1493.10,5171.00
1494.32,5230.00
1495.54,4781.00
1496.76,5123.00
1497.97,4774.00
1499.19,5012.00
1500.41,4604.00
1501.62,5183.00
1502.84,4355.00
1504.05,5000.00
1505.27,4536.00
1506.48,4802.00
1507.70,4461.00
1508.91,4583.00
1510.12,4127.00
1511.33,4807.00
1512.54,4329.00
1513.75,4798.00
1514.96,4150.00
1516.17,4599.00
1517.38,4159.00
1518.59,4646.00
1519.80,3962.00
1521.01,4728.00
1522.21,3750.00
1523.42,4542.00
1524.63,4041.00
1525.83,4483.00
1527.04,3860.00
1528.24,4363.00
1529.44,3906.00
1530.65,4472.00
1531.85,3663.00
1533.05,4579.00
1534.25,3722.00
1535.45,4139.00
1536.65,3849.00
1537.85,4396.00
1539.05,3857.00
1540.25,4137.00
1541.45,3854.00
1542.65,4126.00
1543.85,3685.00
1545.04,4242.00
1546.24,3840.00
1547.44,4276.00
1548.63,3642.00
1549.83,4018.00
1551.02,3701.00
1552.21,4037.00
1553.41,3506.00
1554.60,4086.00
1555.79,3580.00
1556.98,4090.00
1558.17,3548.00
1559.37,3947.00
1560.56,3535.00
1561.74,3763.00
1562.93,3405.00
1564.12,3888.00
1565.31,3533.00
1566.50,3930.00
1567.68,3182.00
1568.87,3732.00
1570.06,3404.00
1571.24,3772.00
1572.43,3376.00
1573.61,3737.00
1574.80,3441.00
1575.98,3778.00
1577.16,3211.00
1578.34,3764.00
1579.53,3158.00
1580.71,3815.00
1581.89,3143.00
1583.07,3532.00
1584.25,3298.00
1585.43,3636.00
1586.61,3253.00
1587.78,3627.00
1588.96,3439.00
1590.14,3742.00
1591.32,3021.00
1592.49,3702.00
1593.67,3216.00
1594.84,3624.00
1596.02,3096.00
1597.19,3545.00
1598.37,3071.00
1599.54,3581.00
1600.71,3078.00
1601.88,3719.00
1603.06,3063.00
1604.23,3467.00
1605.40,3136.00
1606.57,3570.00
1607.74,3004.00
1608.91,3578.00
1610.07,2986.00
1611.24,3715.00
1612.41,3137.00
1613.58,3541.00
1614.74,3114.00
1615.91,3477.00
1617.08,3033.00
1618.24,3484.00
1619.41,3036.00
1620.57,3415.00
1621.73,2984.00
1622.90,3467.00
1624.06,3076.00
1625.22,3371.00
1626.38,2909.00
1627.54,3636.00
1628.70,3013.00
1629.87,3406.00
1631.02,3117.00
1632.18,3330.00
1633.34,2994.00
1634.50,3503.00
1635.66,3036.00
1636.82,3349.00
1637.97,2881.00
1639.13,3469.00
1640.28,3074.00
1641.44,3574.00
1642.59,2999.00
1643.75,3399.00
1644.90,2908.00
1646.06,3358.00
1647.21,2987.00
1648.36,3356.00
1649.51,3056.00
1650.66,3325.00
1651.81,2950.00
1652.97,3315.00
1654.11,2859.00
1655.26,3428.00
1656.41,2943.00
1657.56,3474.00
1658.71,2880.00
1659.86,3176.00
1661.00,2950.00
1662.15,3231.00
1663.30,2889.00
1664.44,3550.00
1665.59,2980.00
1666.73,3381.00
1667.88,3057.00
1669.02,3414.00
1670.16,2889.00
1671.30,3429.00
1672.45,2941.00
1673.59,3439.00
1674.73,2909.00
1675.87,3435.00
1677.01,2820.00
1678.15,3358.00
1679.29,2902.00
1680.43,3426.00
1681.57,2981.00
1682.70,3475.00
1683.84,2840.00
1684.98,3438.00
1686.12,2934.00
1687.25,3418.00
1688.39,2960.00
1689.52,3299.00
1690.66,3028.00
1691.79,3258.00
1692.92,2795.00
1694.06,3372.00
1695.19,2893.00
1696.32,3427.00
1697.45,3034.00
1698.58,3483.00
1699.72,2933.00
1700.85,3517.00
1701.98,2785.00
1703.10,3387.00
1704.23,2827.00
1705.36,3380.00
1706.49,3113.00
1707.62,3378.00
1708.74,2940.00
1709.87,3536.00
1711.00,3043.00
1712.12,3449.00
1713.25,2964.00
1714.37,3306.00
1715.50,2964.00
1716.62,3424.00
1717.74,2935.00
1718.87,3305.00
1719.99,3002.00
1721.11,3143.00
1722.23,2912.00
1723.35,3277.00
1724.47,2896.00
1725.59,3355.00
1726.71,3013.00
1727.83,3284.00
1728.95,2921.00
1730.07,3461.00
1731.19,2854.00
1732.30,3255.00
1733.42,2799.00
1734.54,3242.00
1735.65,2860.00
1736.77,3226.00
1737.88,2886.00
1739.00,3250.00
1740.11,2954.00
1741.23,3321.00
1742.34,3050.00
1743.45,3302.00
1744.56,2926.00
1745.68,3327.00
1746.79,2928.00
1747.90,3193.00
1749.01,2902.00
1750.12,3084.00
1751.23,2864.00
1752.34,3427.00
1753.45,2777.00
1754.55,3353.00
1755.66,2634.00
1756.77,3339.00
1757.88,3012.00
1758.98,3291.00
1760.09,2889.00
1761.19,3176.00
1762.30,2917.00
1763.40,3224.00
1764.51,2962.00
1765.61,3167.00
1766.71,2778.00
1767.82,3225.00
1768.92,2600.00
1770.02,3166.00
1771.12,2487.00
1772.22,3141.00
1773.32,2659.00
1774.42,3105.00
1775.52,2703.00
1776.62,3179.00
1777.72,2573.00
1778.82,3048.00
1779.92,2638.00
1781.01,3157.00
1782.11,2549.00
1783.21,3132.00
1784.30,2614.00
1785.40,2951.00
1786.50,2535.00
1787.59,2988.00
1788.68,2506.00
1789.78,3038.00
1790.87,2583.00
1791.96,2897.00
1793.06,2486.00
1794.15,2830.00
1795.24,2519.00
1796.33,2748.00
1797.42,2509.00
1798.51,2716.00
1799.60,2409.00
1800.69,2767.00
1801.78,2292.00
1802.87,2814.00
1803.96,2488.00
1805.05,2667.00
1806.13,2509.00
1807.22,2679.00
1808.31,2398.00
1809.39,2736.00
1810.48,2274.00
1811.56,2527.00
1812.65,2286.00
1813.73,2616.00
1814.82,2210.00
1815.90,2712.00
1816.98,2058.00
1818.07,2514.00
1819.15,2255.00
1820.23,2587.00
1821.31,2208.00
1822.39,2520.00
1823.47,2297.00
1824.55,2454.00
1825.63,2115.00
1826.71,2498.00
1827.79,2112.00
1828.87,2491.00
1829.95,1954.00
1831.02,2450.00
1832.10,1911.00
1833.18,2510.00
1834.25,2079.00
1835.33,2407.00
1836.40,1852.00
1837.48,2290.00
1838.55,2035.00
1839.63,2455.00
1840.70,1923.00
1841.77,2357.00
1842.85,2042.00
1843.92,2260.00
1844.99,1993.00
1846.06,2173.00
1847.13,1858.00
1848.20,2228.00
1849.28,1889.00
1850.34,2244.00
1851.41,1751.00
1852.48,2311.00
1853.55,1851.00
1854.62,2197.00
1855.69,1978.00
1856.76,1990.00
1857.82,1687.00
1858.89,2236.00
1859.95,1821.00
1861.02,2188.00
1862.09,1743.00
1863.15,2104.00
1864.21,1750.00
1865.28,2091.00
1866.34,1726.00
1867.41,2237.00
1868.47,1770.00
1869.53,2111.00
1870.59,1871.00
1871.65,2008.00
1872.71,1764.00
1873.78,2084.00
1874.84,1655.00
1875.90,2004.00
1876.96,1617.00
1878.01,1902.00
1879.07,1575.00
1880.13,1894.00
1881.19,1688.00
1882.25,2120.00
1883.30,1769.00
1884.36,2056.00
1885.42,1704.00
1886.47,2097.00
1887.53,1592.00
1888.58,2044.00
1889.64,1597.00
1890.69,1930.00
1891.74,1450.00
1892.80,1962.00
1893.85,1570.00
1894.90,2009.00
1895.96,1566.00
1897.01,2003.00
1898.06,1688.00
1899.11,2061.00
1900.16,1575.00
1901.21,1975.00
1902.26,1552.00
1903.31,2063.00
1904.36,1609.00
1905.41,1817.00
1906.45,1548.00
1907.50,1836.00
1908.55,1665.00
1909.60,1936.00
1910.64,1722.00
1911.69,1999.00
1912.73,1708.00
1913.78,1861.00
1914.82,1558.00
1915.87,2049.00
1916.91,1616.00
1917.96,1847.00
1919.00,1575.00
1920.04,1925.00
1921.08,1456.00
1922.13,2006.00
1923.17,1580.00
1924.21,1954.00
1925.25,1468.00
1926.29,1704.00
1927.33,1506.00
1928.37,1861.00
1929.41,1511.00
1930.45,1832.00
1931.49,1559.00
1932.53,1900.00
1933.56,1424.00
1934.60,1884.00
1935.64,1597.00
1936.67,1869.00
1937.71,1467.00
1938.75,1733.00
1939.78,1440.00
1940.82,1746.00
1941.85,1469.00
1942.89,1952.00
1943.92,1509.00
1944.95,1849.00
1945.99,1551.00
1947.02,1971.00
1948.05,1459.00
1949.08,1915.00
1950.11,1372.00
1951.15,1758.00
1952.18,1539.00
1953.21,1751.00
1954.24,1463.00
1955.27,1878.00
1956.30,1354.00
1957.32,1799.00
1958.35,1561.00
1959.38,1805.00
1960.41,1434.00
1961.44,1896.00
1962.46,1550.00
1963.49,1881.00
1964.51,1474.00
1965.54,1878.00
1966.57,1416.00
1967.59,1907.00
1968.62,1460.00
1969.64,1883.00
1970.66,1625.00
1971.69,1816.00
1972.71,1561.00
1973.73,1716.00
1974.75,1449.00
1975.78,1788.00
1976.80,1437.00
1977.82,1805.00
1978.84,1547.00
1979.86,1716.00
1980.88,1600.00
1981.90,1813.00
1982.92,1438.00
1983.94,1786.00
1984.96,1578.00
1985.98,1733.00
1986.99,1390.00
1988.01,1952.00
1989.03,1391.00
1990.04,1768.00
1991.06,1274.00
1992.08,1722.00
1993.09,1474.00
1994.11,1686.00
1995.12,1367.00
1996.14,1946.00
1997.15,1310.00
1998.16,1734.00
1999.18,1512.00
2000.19,1764.00
2001.20,1345.00
2002.21,1809.00
2003.23,1424.00
2004.24,1706.00
2005.25,1409.00
2006.26,1752.00
2007.27,1296.00
2008.28,1820.00
2009.29,1413.00
2010.30,1645.00
2011.31,1408.00
2012.32,1752.00
2013.32,1324.00
2014.33,1631.00
2015.34,1335.00
2016.35,1784.00
2017.35,1416.00
2018.36,1548.00
2019.36,1356.00
2020.37,1690.00
2021.38,1434.00
2022.38,1710.00
2023.38,1452.00
2024.39,1782.00
2025.39,1418.00
2026.40,1734.00
2027.40,1342.00
2028.40,1561.00
2029.40,1357.00
2030.41,1680.00
2031.41,1466.00
2032.41,1673.00
2033.41,1419.00
2034.41,1675.00
2035.41,1322.00
2036.41,1733.00
2037.41,1347.00
2038.41,1719.00
2039.41,1468.00
2040.40,1677.00
2041.40,1198.00
2042.40,1670.00
2043.40,1313.00
2044.39,1558.00
2045.39,1303.00
2046.39,1755.00
2047.38,1355.00
2048.38,1530.00
2049.37,1402.00
2050.37,1517.00
2051.36,1401.00
2052.36,1632.00
2053.35,1323.00
2054.34,1625.00
2055.34,1244.00
2056.33,1762.00
2057.32,1287.00
2058.31,1529.00
2059.30,1418.00
2060.30,1658.00
2061.29,1282.00
2062.28,1583.00
2063.27,1160.00
2064.26,1596.00
2065.25,1228.00
2066.23,1537.00
2067.22,1301.00
2068.21,1588.00
2069.20,1041.00
2070.19,1461.00
2071.17,1308.00
2072.16,1444.00
2073.15,1114.00
2074.13,1586.00
2075.12,1198.00
2076.11,1307.00
2077.09,1225.00
2078.08,1441.00
2079.06,1143.00
2080.04,1495.00
2081.03,1132.00
2082.01,1590.00
2083.00,1092.00
2083.98,1442.00
2084.96,1149.00
2085.94,1441.00
2086.92,1180.00
2087.91,1252.00
2088.89,1147.00
2089.87,1412.00
2090.85,1135.00
2091.83,1439.00
2092.81,1067.00
2093.79,1352.00
2094.77,1120.00
2095.74,1490.00
2096.72,1075.00
2097.70,1372.00
2098.68,1248.00
2099.66,1406.00
2100.63,1074.00
2101.61,1308.00
2102.59,1114.00
2103.56,1341.00
2104.54,1149.00
2105.51,1298.00
2106.49,1010.00
2107.46,1324.00
2108.44,983.00
2109.41,1251.00
2110.38,1046.00
2111.36,1384.00
2112.33,1076.00
2113.30,1325.00
2114.27,1041.00
2115.25,1275.00
2116.22,1061.00
2117.19,1329.00
2118.16,1075.00
2119.13,1199.00
2120.10,1064.00
2121.07,1383.00
2122.04,924.00
2123.01,1296.00
2123.98,974.00
2124.95,1238.00
2125.91,951.00
2126.88,1174.00
2127.85,868.00
2128.82,1259.00
2129.78,966.00
2130.75,1177.00
2131.72,949.00
2132.68,1360.00
2133.65,891.00
2134.61,1357.00
2135.58,900.00
2136.54,1166.00
2137.51,986.00
2138.47,1240.00
2139.43,942.00
2140.40,1170.00
2141.36,886.00
2142.32,1320.00
2143.29,962.00
2144.25,1211.00
2145.21,888.00
2146.17,1085.00
2147.13,987.00
2148.09,1349.00
2149.05,874.00
2150.01,1204.00
2150.97,1061.00
2151.93,1251.00
2152.89,877.00
2153.85,1217.00
2154.81,1008.00
2155.76,1259.00
2156.72,983.00
2157.68,1296.00
2158.64,987.00
2159.59,1190.00
2160.55,964.00
2161.51,1276.00
2162.46,947.00
2163.42,1274.00
2164.37,1101.00
2165.33,1280.00
2166.28,954.00
2167.24,1170.00
2168.19,847.00
2169.14,1239.00
2170.10,937.00
2171.05,1339.00
2172.00,1073.00
2172.95,1279.00
2173.91,956.00
2174.86,1253.00
2175.81,937.00
2176.76,1255.00
2177.71,960.00
2178.66,1273.00
2179.61,1053.00
2180.56,1247.00
2181.51,910.00
2182.46,1271.00
2183.41,1009.00
2184.36,1370.00
2185.30,920.00
2186.25,1176.00
2187.20,967.00
2188.15,1258.00
2189.09,1008.00
2190.04,1310.00
2190.99,902.00
2191.93,1324.00
2192.88,1088.00
2193.82,1238.00
2194.77,859.00
2195.71,1302.00
2196.66,900.00
2197.60,1228.00
2198.54,865.00
2199.49,1204.00
2200.43,943.00
2201.37,1185.00
2202.32,1177.00
2203.26,1297.00
2204.20,933.00
2205.14,1282.00
2206.08,1029.00
2207.02,1298.00
2207.96,1016.00
2208.90,1141.00
2209.84,915.00
2210.78,1065.00
2211.72,1065.00
2212.66,1267.00
2213.60,1000.00
2214.54,1127.00
2215.48,1006.00
2216.42,1376.00
2217.35,969.00
2218.29,1233.00
2219.23,960.00
2220.16,1386.00
2221.10,1018.00
2222.04,1168.00
2222.97,989.00
2223.91,1249.00
2224.84,1005.00
2225.78,1249.00
2226.71,1001.00
2227.65,1284.00
2228.58,1060.00
2229.51,1286.00
2230.45,886.00
2231.38,1280.00
2232.31,1007.00
2233.24,1299.00
2234.18,1004.00
2235.11,1264.00
2236.04,982.00
2236.97,1306.00
2237.90,1134.00
2238.83,1258.00
2239.76,1023.00
2240.69,1247.00
2241.62,1053.00
2242.55,1356.00
2243.48,1151.00
2244.41,1320.00
2245.34,1128.00
2246.27,1308.00
2247.19,1075.00
2248.12,1286.00
2249.05,960.00
2249.98,1281.00
2250.90,1075.00
2251.83,1287.00
2252.75,949.00
2253.68,1276.00
2254.61,929.00
2255.53,1319.00
2256.46,1041.00
2257.38,1311.00
2258.31,858.00
2259.23,1209.00
2260.15,952.00
2261.08,1275.00
2262.00,937.00
2262.92,1366.00
2263.85,949.00
2264.77,1287.00
2265.69,996.00
2266.61,1197.00
2267.53,1008.00
2268.45,1064.00
2269.37,985.00
2270.30,1360.00
2271.22,929.00
2272.14,1276.00
2273.05,984.00
2273.97,1275.00
2274.89,971.00
2275.81,1310.00
2276.73,963.00
2277.65,1260.00
2278.57,969.00
2279.48,1317.00
2280.40,927.00
2281.32,1261.00
2282.24,897.00
2283.15,1264.00
2284.07,868.00
2284.98,1243.00
2285.90,920.00
2286.82,1260.00
2287.73,946.00
2288.65,1219.00
2289.56,1023.00
2290.47,1241.00
2291.39,953.00
2292.30,1339.00
2293.21,863.00
2294.13,1209.00
2295.04,921.00
2295.95,1194.00
2296.87,875.00
2297.78,1184.00
2298.69,856.00
2299.60,1199.00
2300.51,891.00
2301.42,1206.00
2302.33,907.00
2303.24,1131.00
2304.15,934.00
2305.06,1173.00
2305.97,889.00
2306.88,1240.00
2307.79,891.00
2308.70,1179.00
2309.61,871.00
2310.51,1139.00
2311.42,865.00
2312.33,1292.00
2313.24,917.00
2314.14,1143.00
2315.05,846.00
2315.96,1121.00
2316.86,802.00
2317.77,1240.00
2318.67,909.00
2319.58,1128.00
2320.48,786.00
2321.39,1102.00
2322.29,852.00
2323.20,1155.00
2324.10,917.00
2325.00,1063.00
2325.91,719.00
2326.81,1104.00
2327.71,950.00
2328.62,1097.00
2329.52,932.00
2330.42,1150.00
2331.32,852.00
2332.22,1068.00
2333.12,854.00
2334.03,1077.00
2334.93,743.00
2335.83,1201.00
2336.73,832.00
2337.63,1098.00
2338.53,752.00
2339.42,1162.00
2340.32,770.00
2341.22,1060.00
2342.12,787.00
2343.02,1099.00
2343.92,805.00
2344.81,1029.00
2345.71,738.00
2346.61,1276.00
2347.51,763.00
2348.40,1008.00
2349.30,723.00
2350.19,1062.00
2351.09,753.00
2351.98,1047.00
2352.88,761.00
2353.77,1027.00
2354.67,721.00
2355.56,1041.00
2356.46,733.00
2357.35,1050.00
2358.25,828.00
2359.14,1019.00
2360.03,690.00
2360.92,959.00
2361.82,818.00
2362.71,1049.00
2363.60,647.00
2364.49,1058.00
2365.38,798.00
2366.28,993.00
2367.17,743.00
2368.06,1005.00
2368.95,855.00
2369.84,965.00
2370.73,784.00
2371.62,1014.00
2372.51,716.00
2373.40,1080.00
2374.28,745.00
2375.17,1051.00
2376.06,833.00
2376.95,985.00
2377.84,742.00
2378.72,1024.00
2379.61,830.00
2380.50,1136.00
2381.39,720.00
2382.27,1002.00
2383.16,733.00
2384.04,1067.00
2384.93,693.00
2385.81,935.00
2386.70,735.00
2387.59,1176.00
2388.47,895.00
2389.35,1155.00
2390.24,741.00
2391.12,1192.00
2392.01,824.00
2392.89,913.00
2393.77,748.00
2394.66,939.00
2395.54,833.00
2396.42,1127.00
2397.30,809.00
2398.18,1082.00
2399.07,684.00
2399.95,1119.00
2400.83,658.00
2401.71,1027.00
2402.59,744.00
2403.47,1054.00
2404.35,722.00
2405.23,1035.00
2406.11,727.00
2406.99,1150.00
2407.87,749.00
2408.75,982.00
2409.62,729.00
2410.50,1111.00
2411.38,785.00
2412.26,1122.00
2413.14,797.00
2414.01,849.00
2414.89,654.00
2415.77,1081.00
2416.64,723.00
2417.52,1079.00
2418.40,828.00
2419.27,1063.00
2420.15,796.00
2421.02,1063.00
2421.90,725.00
2422.77,1100.00
2423.65,781.00
2424.52,1059.00
2425.40,764.00
2426.27,1144.00
2427.14,785.00
2428.02,1206.00
2428.89,700.00
2429.76,1158.00
2430.64,842.00
2431.51,1176.00
2432.38,655.00
2433.25,1068.00
2434.12,864.00
2434.99,1123.00
2435.87,821.00
2436.74,1083.00
2437.61,723.00
2438.48,1014.00
2439.35,857.00
2440.22,1033.00
2441.09,782.00
2441.96,1026.00
2442.83,826.00
2443.69,1026.00
2444.56,833.00
2445.43,1183.00
2446.30,783.00
2447.17,1049.00
2448.04,726.00
2448.90,1098.00
2449.77,797.00
2450.64,1138.00
2451.50,825.00
2452.37,1041.00
2453.24,743.00
2454.10,1002.00
2454.97,789.00
2455.83,1192.00
2456.70,875.00
2457.56,1096.00
2458.43,802.00
2459.29,1219.00
2460.16,898.00
2461.02,1208.00
2461.89,801.00
2462.75,1116.00
2463.61,717.00
2464.48,1184.00
2465.34,783.00
2466.20,1216.00
2467.06,791.00
2467.93,1108.00
2468.79,729.00
2469.65,1192.00
2470.51,811.00
2471.37,1162.00
2472.23,911.00
2473.10,1072.00
2473.96,761.00
2474.82,1153.00
2475.68,997.00
2476.54,1003.00
2477.40,783.00
2478.26,1138.00
2479.11,826.00
2479.97,1114.00
2480.83,824.00
2481.69,1053.00
2482.55,682.00
2483.41,1256.00
2484.26,890.00
2485.12,1219.00
2485.98,839.00
2486.84,1157.00
2487.69,866.00
2488.55,1135.00
2489.41,875.00
2490.26,1139.00
2491.12,869.00
2491.97,1214.00
2492.83,758.00
2493.68,1135.00
2494.54,790.00
2495.39,1070.00
2496.25,893.00
2497.10,1221.00
2497.96,775.00
2498.81,1160.00
2499.67,733.00
2500.52,1068.00
2501.37,787.00
2502.22,1090.00
2503.08,979.00
2503.93,1184.00
2504.78,776.00
2505.63,1243.00
2506.49,758.00
2507.34,1260.00
2508.19,928.00
2509.04,1164.00
2509.89,855.00
2510.74,1266.00
2511.59,870.00
2512.44,1202.00
2513.29,803.00
2514.14,1316.00
2514.99,892.00
2515.84,1205.00
2516.69,684.00
2517.54,1148.00
2518.39,936.00
2519.24,1121.00
2520.08,875.00
2520.93,1225.00
2521.78,760.00
2522.63,1222.00
2523.48,865.00
2524.32,1226.00
2525.17,825.00
2526.02,1191.00
2526.86,752.00
2527.71,1168.00
2528.56,744.00
2529.40,1171.00
2530.25,754.00
2531.09,1173.00
2531.94,701.00
2532.78,1131.00
2533.63,775.00
2534.47,1002.00
2535.32,756.00
2536.16,1196.00
2537.00,909.00
2537.85,1195.00
2538.69,841.00
2539.53,1155.00
2540.38,938.00
2541.22,1215.00
2542.06,772.00
2542.90,1088.00
2543.75,807.00
2544.59,1068.00
2545.43,707.00
2546.27,1177.00
2547.11,766.00
2547.95,1186.00
2548.79,775.00
2549.64,1223.00
2550.48,844.00
2551.32,1106.00
2552.16,796.00
2553.00,1148.00
2553.84,739.00
2554.67,1076.00
2555.51,851.00
2556.35,1046.00
2557.19,793.00
2558.03,1002.00
2558.87,711.00
2559.71,1062.00
2560.54,738.00
2561.38,1160.00
2562.22,756.00
2563.06,1084.00
2563.89,744.00
2564.73,1088.00
2565.57,722.00
2566.40,1189.00
2567.24,744.00
2568.07,1225.00
2568.91,781.00
2569.75,1162.00
2570.58,736.00
2571.42,1133.00
2572.25,885.00
2573.09,1180.00
2573.92,758.00
2574.75,1234.00
2575.59,759.00
2576.42,1170.00
2577.26,729.00
2578.09,1184.00
2578.92,809.00
2579.76,1301.00
2580.59,752.00
2581.42,1169.00
2582.25,872.00
2583.09,1190.00
2583.92,950.00
2584.75,1222.00
2585.58,824.00
2586.41,1159.00
2587.24,741.00
2588.07,1227.00
2588.91,708.00
2589.74,1249.00
2590.57,822.00
2591.40,1045.00
2592.23,791.00
2593.06,1189.00
2593.89,819.00
2594.72,1163.00
2595.54,924.00
2596.37,1223.00
2597.20,832.00
2598.03,1206.00
2598.86,700.00
2599.69,1213.00
2600.52,883.00
2601.34,1293.00
2602.17,787.00
2603.00,1276.00
2603.82,812.00
2604.65,1078.00
2605.48,875.00
2606.30,1238.00
2607.13,753.00
2607.96,1333.00
2608.78,740.00
2609.61,1243.00
2610.43,890.00
2611.26,1293.00
2612.08,794.00
2612.91,1297.00
2613.73,897.00
2614.56,1209.00
2615.38,936.00
2616.21,1190.00
2617.03,900.00
2617.86,1228.00
2618.68,863.00
2619.50,1137.00
2620.33,722.00
2621.15,1193.00
2621.97,782.00
2622.79,1219.00
2623.62,786.00
2624.44,1261.00
2625.26,885.00
2626.08,1088.00
2626.90,844.00
2627.72,1151.00
2628.55,841.00
2629.37,1236.00
2630.19,769.00
2631.01,1288.00
2631.83,810.00
2632.65,1129.00
2633.47,785.00
2634.29,1225.00
2635.11,851.00
2635.93,1121.00
2636.75,843.00
2637.57,1220.00
2638.39,864.00
2639.20,1220.00
2640.02,812.00
2640.84,1185.00
2641.66,685.00
2642.48,1279.00
2643.29,888.00
2644.11,1253.00
2644.93,889.00
2645.75,1182.00
2646.56,807.00
2647.38,1083.00
2648.20,862.00
2649.01,0.00
2649.83,0.00
2650.65,0.00
2651.46,0.00
2652.28,0.00
