ENLIGHTEN Version,1.7.2
Measurement ID,20190716-221902-288047-WP-00438
Serial Number,WP-00438
Label,isopropanol 4mm HDPE
Integration Time,2000
Timestamp,2019-07-16 22:19:02.288047
Note,
Temperature,-99
CCD C0,807.1400146484375
CCD C1,0.11761099845170975
CCD C2,-1.6414700439781882e-05
CCD C3,2.3293600381890656e-09
CCD Offset,0
CCD Gain,8.0
Laser Wavelength,785.0
Laser Enable,True
Laser Power,100.0
Laser Temperature,-99
Pixel Count,1952

Wavenumber,Processed
349.43,0.00
351.23,0.00
353.04,0.00
354.84,6953.00
356.64,5916.00
358.44,7143.00
360.24,5774.00
362.04,7217.00
363.84,5830.00
365.64,7086.00
367.43,6096.00
369.23,7537.00
371.02,6088.00
372.81,7254.00
374.60,6107.00
376.39,7143.00
378.18,5997.00
379.97,7114.00
381.76,6456.00
383.55,7093.00
385.33,6079.00
387.11,7026.00
388.90,6071.00
390.68,7061.00
392.46,6004.00
394.24,7066.00
396.02,6147.00
397.80,6847.00
399.58,5881.00
401.35,6956.00
403.13,6007.00
404.90,6963.00
406.68,6015.00
408.45,7298.00
410.22,5834.00
411.99,6842.00
413.76,6038.00
415.53,6936.00
417.30,6031.00
419.06,7121.00
420.83,5918.00
422.59,6967.00
424.35,5939.00
426.12,7077.00
427.88,6116.00
429.64,7148.00
431.40,5811.00
433.16,7030.00
434.91,5920.00
436.67,6962.00
438.43,6150.00
440.18,7012.00
441.93,5920.00
443.69,6686.00
445.44,5942.00
447.19,6953.00
448.94,5963.00
450.69,6743.00
452.43,5731.00
454.18,6708.00
455.92,5834.00
457.67,6590.00
459.41,5810.00
461.16,6410.00
462.90,5912.00
464.64,6620.00
466.38,5607.00
468.12,6707.00
469.85,5501.00
471.59,6483.00
473.33,5546.00
475.06,6558.00
476.80,5506.00
478.53,6255.00
480.26,5515.00
481.99,6268.00
483.72,5549.00
485.45,6386.00
487.18,5527.00
488.91,6231.00
490.63,5458.00
492.36,6294.00
494.08,5538.00
495.80,6348.00
497.53,5392.00
499.25,6169.00
500.97,5437.00
502.69,6369.00
504.41,5352.00
506.12,6147.00
507.84,5120.00
509.56,5881.00
511.27,5246.00
512.98,6105.00
514.70,5356.00
516.41,6219.00
518.12,5277.00
519.83,6096.00
521.54,5107.00
523.25,5977.00
524.95,5180.00
526.66,5987.00
528.36,5152.00
530.07,5908.00
531.77,4973.00
533.47,6002.00
535.18,5067.00
536.88,5803.00
538.58,5022.00
540.27,5990.00
541.97,5068.00
543.67,5978.00
545.36,5150.00
547.06,5490.00
548.75,5012.00
550.45,5995.00
552.14,4994.00
553.83,5725.00
555.52,4752.00
557.21,5871.00
558.90,5046.00
560.58,5941.00
562.27,5077.00
563.96,5770.00
565.64,5011.00
567.32,5666.00
569.01,5022.00
570.69,5937.00
572.37,4897.00
574.05,5827.00
575.73,4864.00
577.41,5703.00
579.08,5063.00
580.76,5731.00
582.44,4863.00
584.11,5684.00
585.78,4819.00
587.46,5679.00
589.13,4683.00
590.80,5726.00
592.47,5026.00
594.14,5646.00
595.81,5065.00
597.47,5429.00
599.14,4932.00
600.80,5690.00
602.47,4857.00
604.13,5490.00
605.79,4958.00
607.46,5660.00
609.12,4718.00
610.78,5745.00
612.44,4797.00
614.09,5524.00
615.75,4944.00
617.41,5588.00
619.06,4908.00
620.72,5547.00
622.37,4798.00
624.02,5500.00
625.67,4732.00
627.33,5566.00
628.97,4637.00
630.62,5638.00
632.27,4680.00
633.92,5534.00
635.57,4713.00
637.21,5221.00
638.86,4751.00
640.50,5536.00
642.14,4778.00
643.78,5208.00
645.42,4665.00
647.06,5429.00
648.70,4668.00
650.34,5293.00
651.98,4571.00
653.62,5383.00
655.25,4716.00
656.89,5269.00
658.52,4558.00
660.15,5350.00
661.79,4637.00
663.42,5260.00
665.05,4703.00
666.68,5180.00
668.31,4303.00
669.93,5192.00
671.56,4448.00
673.19,5106.00
674.81,4334.00
676.43,5196.00
678.06,4477.00
679.68,5011.00
681.30,4312.00
682.92,5030.00
684.54,4503.00
686.16,5061.00
687.78,4373.00
689.40,4996.00
691.01,4138.00
692.63,5016.00
694.24,4298.00
695.86,5140.00
697.47,4186.00
699.08,5058.00
700.69,4432.00
702.30,5111.00
703.91,4222.00
705.52,5050.00
707.13,4223.00
708.74,4893.00
710.34,4436.00
711.95,5189.00
713.55,4365.00
715.15,5010.00
716.76,4424.00
718.36,5216.00
719.96,4370.00
721.56,4924.00
723.16,4602.00
724.76,5102.00
726.35,4441.00
727.95,4980.00
729.55,4435.00
731.14,5164.00
732.73,4278.00
734.33,5077.00
735.92,4424.00
737.51,5198.00
739.10,4403.00
740.69,5165.00
742.28,4251.00
743.87,5094.00
745.46,4522.00
747.04,4942.00
748.63,4528.00
750.21,5187.00
751.80,4373.00
753.38,5093.00
754.96,4501.00
756.54,4975.00
758.12,4556.00
759.70,5307.00
761.28,4600.00
762.86,5205.00
764.44,4482.00
766.01,5345.00
767.59,4665.00
769.16,5123.00
770.74,4397.00
772.31,5400.00
773.88,4582.00
775.45,5310.00
777.02,4637.00
778.59,5502.00
780.16,4499.00
781.73,5496.00
783.30,4578.00
784.86,5348.00
786.43,4752.00
787.99,5188.00
789.56,4590.00
791.12,5387.00
792.68,4878.00
794.24,5268.00
795.80,4595.00
797.36,5639.00
798.92,4774.00
800.48,5675.00
802.04,4695.00
803.59,5648.00
805.15,4964.00
806.70,5482.00
808.26,5098.00
809.81,5700.00
811.36,4943.00
812.91,5844.00
814.46,5094.00
816.01,5703.00
817.56,4977.00
819.11,5814.00
820.66,5067.00
822.20,5740.00
823.75,5174.00
825.30,5828.00
826.84,4794.00
828.38,5854.00
829.93,5040.00
831.47,5780.00
833.01,5087.00
834.55,6084.00
836.09,5107.00
837.63,6198.00
839.16,5271.00
840.70,5798.00
842.24,5208.00
843.77,6038.00
845.31,5404.00
846.84,6051.00
848.37,5219.00
849.90,6187.00
851.44,5322.00
852.97,5932.00
854.50,5243.00
856.03,6271.00
857.55,5492.00
859.08,6286.00
860.61,5274.00
862.13,6200.00
863.66,5414.00
865.18,6140.00
866.70,5584.00
868.23,6437.00
869.75,5479.00
871.27,6392.00
872.79,5572.00
874.31,6330.00
875.83,5499.00
877.35,6241.00
878.86,5601.00
880.38,6249.00
881.89,5611.00
883.41,6394.00
884.92,5592.00
886.44,6405.00
887.95,5442.00
889.46,6181.00
890.97,5431.00
892.48,6346.00
893.99,5255.00
895.50,6307.00
897.01,5590.00
898.51,6295.00
900.02,5542.00
901.52,6162.00
903.03,5417.00
904.53,6313.00
906.04,5293.00
907.54,5849.00
909.04,5346.00
910.54,6075.00
912.04,5198.00
913.54,5954.00
915.04,5219.00
916.53,5890.00
918.03,5393.00
919.53,5996.00
921.02,5160.00
922.52,6061.00
924.01,5050.00
925.50,5476.00
927.00,5164.00
928.49,5719.00
929.98,4995.00
931.47,5707.00
932.96,4980.00
934.44,5893.00
935.93,4914.00
937.42,5512.00
938.90,4774.00
940.39,5568.00
941.87,4794.00
943.36,5395.00
944.84,4881.00
946.32,5500.00
947.80,4841.00
949.29,5407.00
950.77,4743.00
952.24,5520.00
953.72,4738.00
955.20,5368.00
956.68,4675.00
958.15,5458.00
959.63,4753.00
961.10,5260.00
962.58,4707.00
964.05,5335.00
965.52,4619.00
967.00,5165.00
968.47,4418.00
969.94,5461.00
971.41,4893.00
972.87,5332.00
974.34,4542.00
975.81,5065.00
977.28,4812.00
978.74,5287.00
980.21,4691.00
981.67,5306.00
983.13,4650.00
984.60,4998.00
986.06,4536.00
987.52,5079.00
988.98,4412.00
990.44,5201.00
991.90,4605.00
993.36,5220.00
994.82,4412.00
996.27,5223.00
997.73,4568.00
999.18,5312.00
1000.64,4519.00
1002.09,5118.00
1003.55,4607.00
1005.00,5156.00
1006.45,4674.00
1007.90,5139.00
1009.35,4560.00
1010.80,5277.00
1012.25,4540.00
1013.70,5045.00
1015.14,4698.00
1016.59,5219.00
1018.04,4755.00
1019.48,5631.00
1020.93,4656.00
1022.37,5610.00
1023.81,4839.00
1025.25,5355.00
1026.70,4798.00
1028.14,5534.00
1029.58,5054.00
1031.02,5747.00
1032.45,5152.00
1033.89,6274.00
1035.33,5955.00
1036.77,7003.00
1038.20,6765.00
1039.64,8040.00
1041.07,7836.00
1042.50,9041.00
1043.94,8147.00
1045.37,9365.00
1046.80,8841.00
1048.23,9706.00
1049.66,8928.00
1051.09,9670.00
1052.52,9063.00
1053.95,9494.00
1055.37,9070.00
1056.80,10104.00
1058.23,9258.00
1059.65,9982.00
1061.08,9354.00
1062.50,9927.00
1063.92,9618.00
1065.34,9917.00
1066.76,8824.00
1068.19,9639.00
1069.61,8352.00
1071.02,9176.00
1072.44,8137.00
1073.86,8642.00
1075.28,7616.00
1076.69,8290.00
1078.11,7416.00
1079.53,8037.00
1080.94,7048.00
1082.35,7789.00
1083.77,6740.00
1085.18,7398.00
1086.59,6704.00
1088.00,7396.00
1089.41,6433.00
1090.82,7053.00
1092.23,6384.00
1093.64,7246.00
1095.04,6280.00
1096.45,7159.00
1097.86,6591.00
1099.26,7477.00
1100.67,6966.00
1102.07,8274.00
1103.47,7909.00
1104.88,9331.00
1106.28,9102.00
1107.68,10233.00
1109.08,9891.00
1110.48,11056.00
1111.88,10563.00
1113.28,11436.00
1114.67,10530.00
1116.07,11359.00
1117.47,9926.00
1118.86,10767.00
1120.26,9972.00
1121.65,10619.00
1123.05,9719.00
1124.44,10832.00
1125.83,9858.00
1127.22,10997.00
1128.61,9900.00
1130.00,10646.00
1131.39,9831.00
1132.78,10337.00
1134.17,9257.00
1135.56,9730.00
1136.94,8870.00
1138.33,9414.00
1139.72,8277.00
1141.10,8863.00
1142.48,7879.00
1143.87,8384.00
1145.25,7484.00
1146.63,8160.00
1148.01,7335.00
1149.39,8137.00
1150.77,6975.00
1152.15,7640.00
1153.53,6906.00
1154.91,7323.00
1156.29,6522.00
1157.66,7124.00
1159.04,6372.00
1160.41,6949.00
1161.79,6330.00
1163.16,6955.00
1164.54,6167.00
1165.91,6796.00
1167.28,6075.00
1168.65,6861.00
1170.02,6013.00
1171.39,6811.00
1172.76,5677.00
1174.13,6345.00
1175.50,5695.00
1176.86,6577.00
1178.23,5870.00
1179.60,6129.00
1180.96,5599.00
1182.33,6166.00
1183.69,5394.00
1185.05,6025.00
1186.42,5494.00
1187.78,6137.00
1189.14,5363.00
1190.50,5808.00
1191.86,5327.00
1193.22,5739.00
1194.58,4880.00
1195.94,5809.00
1197.29,5088.00
1198.65,5781.00
1200.01,5121.00
1201.36,5542.00
1202.72,5058.00
1204.07,5634.00
1205.42,5016.00
1206.78,5560.00
1208.13,4997.00
1209.48,5417.00
1210.83,4818.00
1212.18,5361.00
1213.53,5047.00
1214.88,5523.00
1216.23,4743.00
1217.58,5643.00
1218.92,4942.00
1220.27,5430.00
1221.61,4793.00
1222.96,5425.00
1224.30,4712.00
1225.65,5192.00
1226.99,4753.00
1228.33,5391.00
1229.67,4691.00
1231.01,5383.00
1232.36,4904.00
1233.70,5208.00
1235.03,4631.00
1236.37,5243.00
1237.71,4860.00
1239.05,5448.00
1240.38,4721.00
1241.72,5451.00
1243.06,4797.00
1244.39,5324.00
1245.72,4893.00
1247.06,5429.00
1248.39,4840.00
1249.72,5537.00
1251.05,4816.00
1252.39,5410.00
1253.72,5036.00
1255.05,5754.00
1256.37,4885.00
1257.70,5681.00
1259.03,5039.00
1260.36,5909.00
1261.68,5291.00
1263.01,6109.00
1264.33,5644.00
1265.66,6422.00
1266.98,6235.00
1268.31,7350.00
1269.63,7091.00
1270.95,8634.00
1272.27,8884.00
1273.59,9993.00
1274.91,9752.00
1276.23,10989.00
1277.55,10630.00
1278.87,11354.00
1280.19,11002.00
1281.51,11436.00
1282.82,10650.00
1284.14,11160.00
1285.45,10433.00
1286.77,10881.00
1288.08,10136.00
1289.39,10708.00
1290.71,10333.00
1292.02,11625.00
1293.33,10685.00
1294.64,11624.00
1295.95,10924.00
1297.26,11508.00
1298.57,10402.00
1299.88,11064.00
1301.19,10068.00
1302.49,10786.00
1303.80,9328.00
1305.11,9504.00
1306.41,8476.00
1307.72,9064.00
1309.02,7814.00
1310.32,8299.00
1311.63,7150.00
1312.93,7687.00
1314.23,6714.00
1315.53,7314.00
1316.83,6199.00
1318.13,6534.00
1319.43,5901.00
1320.73,6031.00
1322.03,5297.00
1323.32,5671.00
1324.62,5067.00
1325.92,5547.00
1327.21,4736.00
1328.51,5268.00
1329.80,4625.00
1331.10,5105.00
1332.39,4477.00
1333.68,5107.00
1334.97,4476.00
1336.27,4763.00
1337.56,4318.00
1338.85,4751.00
1340.14,4062.00
1341.42,4795.00
1342.71,4144.00
1344.00,4901.00
1345.29,4130.00
1346.57,4980.00
1347.86,4234.00
1349.15,4860.00
1350.43,4487.00
1351.71,4753.00
1353.00,4396.00
1354.28,5025.00
1355.56,4337.00
1356.85,5185.00
1358.13,4392.00
1359.41,4895.00
1360.69,4454.00
1361.97,4765.00
1363.25,4405.00
1364.52,4972.00
1365.80,4612.00
1367.08,4714.00
1368.35,4266.00
1369.63,4965.00
1370.91,4348.00
1372.18,4828.00
1373.45,4273.00
1374.73,4959.00
1376.00,4186.00
1377.27,4957.00
1378.54,4303.00
1379.82,4851.00
1381.09,4192.00
1382.36,5021.00
1383.63,4466.00
1384.89,5091.00
1386.16,4523.00
1387.43,5077.00
1388.70,4808.00
1389.96,5638.00
1391.23,5214.00
1392.50,6180.00
1393.76,5662.00
1395.02,6579.00
1396.29,6196.00
1397.55,7141.00
1398.81,6783.00
1400.08,7454.00
1401.34,7146.00
1402.60,7611.00
1403.86,7570.00
1405.12,8211.00
1406.38,7706.00
1407.63,8354.00
1408.89,8174.00
1410.15,9167.00
1411.41,8849.00
1412.66,9812.00
1413.92,10084.00
1415.17,11249.00
1416.43,11276.00
1417.68,12793.00
1418.93,12813.00
1420.19,13766.00
1421.44,13492.00
1422.69,14891.00
1423.94,14392.00
1425.19,15155.00
1426.44,14709.00
1427.69,15215.00
1428.94,14689.00
1430.19,15395.00
1431.43,14744.00
1432.68,15670.00
1433.93,14920.00
1435.17,16037.00
1436.42,15541.00
1437.66,16307.00
1438.91,15856.00
1440.15,17211.00
1441.39,16347.00
1442.64,17119.00
1443.88,16712.00
1445.12,17198.00
1446.36,16261.00
1447.60,16663.00
1448.84,15995.00
1450.08,16371.00
1451.32,15100.00
1452.56,15573.00
1453.79,14770.00
1455.03,14740.00
1456.27,14008.00
1457.50,13738.00
1458.74,13039.00
1459.97,13486.00
1461.21,12476.00
1462.44,12413.00
1463.67,11764.00
1464.91,11783.00
1466.14,11054.00
1467.37,11155.00
1468.60,10279.00
1469.83,10695.00
1471.06,9650.00
1472.29,9697.00
1473.52,8893.00
1474.75,9092.00
1475.97,8208.00
1477.20,8450.00
1478.43,7657.00
1479.65,7784.00
1480.88,7103.00
1482.10,7488.00
1483.33,6623.00
1484.55,6944.00
1485.77,5963.00
1487.00,6414.00
1488.22,5742.00
1489.44,6002.00
1490.66,5317.00
1491.88,5810.00
1493.10,5408.00
1494.32,5570.00
1495.54,5075.00
1496.76,5249.00
1497.97,4788.00
1499.19,5077.00
1500.41,4374.00
1501.62,5080.00
1502.84,4331.00
1504.05,5049.00
1505.27,4341.00
1506.48,4633.00
1507.70,4206.00
1508.91,4644.00
1510.12,4076.00
1511.33,4689.00
1512.54,3987.00
1513.75,4618.00
1514.96,4036.00
1516.17,4392.00
1517.38,3870.00
1518.59,4693.00
1519.80,3767.00
1521.01,4317.00
1522.21,3810.00
1523.42,4185.00
1524.63,3695.00
1525.83,4198.00
1527.04,3689.00
1528.24,4195.00
1529.44,3771.00
1530.65,4267.00
1531.85,3651.00
1533.05,4188.00
1534.25,3375.00
1535.45,4104.00
1536.65,3618.00
1537.85,4135.00
1539.05,3511.00
1540.25,4168.00
1541.45,3449.00
1542.65,4039.00
1543.85,3770.00
1545.04,3958.00
1546.24,3403.00
1547.44,3843.00
1548.63,3357.00
1549.83,3879.00
1551.02,3317.00
1552.21,3837.00
1553.41,3277.00
1554.60,3769.00
1555.79,3319.00
1556.98,3865.00
1558.17,3177.00
1559.37,3684.00
1560.56,3248.00
1561.74,3694.00
1562.93,3065.00
1564.12,3556.00
1565.31,3136.00
1566.50,3692.00
1567.68,3189.00
1568.87,3578.00
1570.06,3151.00
1571.24,3630.00
1572.43,3022.00
1573.61,3677.00
1574.80,3125.00
1575.98,3591.00
1577.16,3071.00
1578.34,3602.00
1579.53,2887.00
1580.71,3512.00
1581.89,2912.00
1583.07,3446.00
1584.25,2927.00
1585.43,3330.00
1586.61,3095.00
1587.78,3406.00
1588.96,2892.00
1590.14,3595.00
1591.32,2872.00
1592.49,3512.00
1593.67,3322.00
1594.84,3284.00
1596.02,2921.00
1597.19,3374.00
1598.37,3013.00
1599.54,3374.00
1600.71,2917.00
1601.88,3308.00
1603.06,2981.00
1604.23,3370.00
1605.40,2794.00
1606.57,3417.00
1607.74,2855.00
1608.91,3363.00
1610.07,2834.00
1611.24,3327.00
1612.41,2873.00
1613.58,3313.00
1614.74,2869.00
1615.91,3351.00
1617.08,2801.00
1618.24,3513.00
1619.41,2933.00
1620.57,3477.00
1621.73,2882.00
1622.90,3237.00
1624.06,2775.00
1625.22,3432.00
1626.38,2799.00
1627.54,3224.00
1628.70,2839.00
1629.87,3347.00
1631.02,2885.00
1632.18,3120.00
1633.34,2867.00
1634.50,3252.00
1635.66,2836.00
1636.82,3410.00
1637.97,2837.00
1639.13,3415.00
1640.28,2848.00
1641.44,3289.00
1642.59,2591.00
1643.75,3217.00
1644.90,2841.00
1646.06,3187.00
1647.21,2786.00
1648.36,3119.00
1649.51,2717.00
1650.66,3120.00
1651.81,2723.00
1652.97,3199.00
1654.11,2826.00
1655.26,3018.00
1656.41,2854.00
1657.56,3146.00
1658.71,2728.00
1659.86,3170.00
1661.00,2684.00
1662.15,3415.00
1663.30,2734.00
1664.44,3021.00
1665.59,2634.00
1666.73,3115.00
1667.88,2717.00
1669.02,3249.00
1670.16,2724.00
1671.30,3170.00
1672.45,2907.00
1673.59,3179.00
1674.73,2745.00
1675.87,3148.00
1677.01,2628.00
1678.15,3023.00
1679.29,2595.00
1680.43,3187.00
1681.57,2689.00
1682.70,3144.00
1683.84,2618.00
1684.98,3209.00
1686.12,2758.00
1687.25,3198.00
1688.39,2549.00
1689.52,3250.00
1690.66,2710.00
1691.79,3174.00
1692.92,2728.00
1694.06,3346.00
1695.19,2783.00
1696.32,3110.00
1697.45,2730.00
1698.58,3062.00
1699.72,2711.00
1700.85,3140.00
1701.98,2852.00
1703.10,3203.00
1704.23,2655.00
1705.36,3224.00
1706.49,2744.00
1707.62,3221.00
1708.74,2743.00
1709.87,3244.00
1711.00,2719.00
1712.12,3254.00
1713.25,2755.00
1714.37,3185.00
1715.50,2686.00
1716.62,3110.00
1717.74,2873.00
1718.87,3226.00
1719.99,2666.00
1721.11,3103.00
1722.23,2731.00
1723.35,3084.00
1724.47,2869.00
1725.59,3050.00
1726.71,2728.00
1727.83,3358.00
1728.95,2622.00
1730.07,3146.00
1731.19,2402.00
1732.30,3256.00
1733.42,2774.00
1734.54,3098.00
1735.65,2614.00
1736.77,3169.00
1737.88,2860.00
1739.00,3263.00
1740.11,2869.00
1741.23,3169.00
1742.34,2785.00
1743.45,3090.00
1744.56,2695.00
1745.68,3182.00
1746.79,2774.00
1747.90,3226.00
1749.01,2846.00
1750.12,3014.00
1751.23,2438.00
1752.34,2849.00
1753.45,2772.00
1754.55,3129.00
1755.66,2622.00
1756.77,2967.00
1757.88,2607.00
1758.98,2976.00
1760.09,2621.00
1761.19,3059.00
1762.30,2581.00
1763.40,3049.00
1764.51,2668.00
1765.61,3034.00
1766.71,2656.00
1767.82,2929.00
1768.92,2452.00
1770.02,2900.00
1771.12,2476.00
1772.22,2952.00
1773.32,2535.00
1774.42,2975.00
1775.52,2485.00
1776.62,2908.00
1777.72,2682.00
1778.82,2918.00
1779.92,2546.00
1781.01,3024.00
1782.11,2307.00
1783.21,2799.00
1784.30,2448.00
1785.40,2762.00
1786.50,2413.00
1787.59,2903.00
1788.68,2337.00
1789.78,2761.00
1790.87,2318.00
1791.96,2892.00
1793.06,2398.00
1794.15,2839.00
1795.24,2362.00
1796.33,2764.00
1797.42,2409.00
1798.51,2740.00
1799.60,2330.00
1800.69,2719.00
1801.78,2265.00
1802.87,2752.00
1803.96,2260.00
1805.05,2741.00
1806.13,2214.00
1807.22,2520.00
1808.31,2206.00
1809.39,2589.00
1810.48,2107.00
1811.56,2489.00
1812.65,2153.00
1813.73,2538.00
1814.82,2213.00
1815.90,2664.00
1816.98,2117.00
1818.07,2429.00
1819.15,2133.00
1820.23,2650.00
1821.31,2054.00
1822.39,2408.00
1823.47,2028.00
1824.55,2473.00
1825.63,2098.00
1826.71,2558.00
1827.79,1998.00
1828.87,2482.00
1829.95,1995.00
1831.02,2349.00
1832.10,1916.00
1833.18,2363.00
1834.25,1882.00
1835.33,2411.00
1836.40,1768.00
1837.48,2323.00
1838.55,1982.00
1839.63,2285.00
1840.70,1829.00
1841.77,2303.00
1842.85,1848.00
1843.92,2086.00
1844.99,1894.00
1846.06,2222.00
1847.13,1857.00
1848.20,2214.00
1849.28,1820.00
1850.34,2259.00
1851.41,1822.00
1852.48,2194.00
1853.55,1627.00
1854.62,2149.00
1855.69,1818.00
1856.76,2041.00
1857.82,1612.00
1858.89,2244.00
1859.95,1786.00
1861.02,2152.00
1862.09,1676.00
1863.15,2048.00
1864.21,1631.00
1865.28,2056.00
1866.34,1659.00
1867.41,2069.00
1868.47,1661.00
1869.53,2003.00
1870.59,1663.00
1871.65,1931.00
1872.71,1737.00
1873.78,1976.00
1874.84,1686.00
1875.90,2004.00
1876.96,1675.00
1878.01,1891.00
1879.07,1654.00
1880.13,1811.00
1881.19,1581.00
1882.25,1842.00
1883.30,1505.00
1884.36,1918.00
1885.42,1538.00
1886.47,2060.00
1887.53,1577.00
1888.58,1897.00
1889.64,1644.00
1890.69,1784.00
1891.74,1532.00
1892.80,1966.00
1893.85,1548.00
1894.90,2015.00
1895.96,1587.00
1897.01,1993.00
1898.06,1513.00
1899.11,1965.00
1900.16,1495.00
1901.21,1943.00
1902.26,1521.00
1903.31,1949.00
1904.36,1494.00
1905.41,1915.00
1906.45,1379.00
1907.50,1883.00
1908.55,1537.00
1909.60,1915.00
1910.64,1525.00
1911.69,1901.00
1912.73,1538.00
1913.78,1908.00
1914.82,1370.00
1915.87,1874.00
1916.91,1483.00
1917.96,2067.00
1919.00,1592.00
1920.04,1951.00
1921.08,1519.00
1922.13,1929.00
1923.17,1509.00
1924.21,1937.00
1925.25,1444.00
1926.29,1824.00
1927.33,1565.00
1928.37,1923.00
1929.41,1419.00
1930.45,1732.00
1931.49,1479.00
1932.53,1829.00
1933.56,1410.00
1934.60,1875.00
1935.64,1414.00
1936.67,1939.00
1937.71,1464.00
1938.75,1839.00
1939.78,1466.00
1940.82,1880.00
1941.85,1484.00
1942.89,1731.00
1943.92,1492.00
1944.95,1875.00
1945.99,1519.00
1947.02,1779.00
1948.05,1436.00
1949.08,1843.00
1950.11,1507.00
1951.15,1928.00
1952.18,1498.00
1953.21,1674.00
1954.24,1514.00
1955.27,1813.00
1956.30,1467.00
1957.32,1712.00
1958.35,1481.00
1959.38,1817.00
1960.41,1342.00
1961.44,1837.00
1962.46,1418.00
1963.49,1896.00
1964.51,1434.00
1965.54,1690.00
1966.57,1403.00
1967.59,1785.00
1968.62,1283.00
1969.64,1744.00
1970.66,1605.00
1971.69,1604.00
1972.71,1511.00
1973.73,1899.00
1974.75,1377.00
1975.78,1789.00
1976.80,1480.00
1977.82,1750.00
1978.84,1330.00
1979.86,1792.00
1980.88,1555.00
1981.90,1762.00
1982.92,1372.00
1983.94,1804.00
1984.96,1352.00
1985.98,1777.00
1986.99,1378.00
1988.01,1795.00
1989.03,1430.00
1990.04,1696.00
1991.06,1477.00
1992.08,1769.00
1993.09,1302.00
1994.11,1725.00
1995.12,1412.00
1996.14,1749.00
1997.15,1442.00
1998.16,1883.00
1999.18,1514.00
2000.19,1906.00
2001.20,1337.00
2002.21,1742.00
2003.23,1378.00
2004.24,1792.00
2005.25,1471.00
2006.26,1689.00
2007.27,1261.00
2008.28,1912.00
2009.29,1506.00
2010.30,1886.00
2011.31,1574.00
2012.32,1716.00
2013.32,1341.00
2014.33,1615.00
2015.34,1418.00
2016.35,1837.00
2017.35,1394.00
2018.36,1609.00
2019.36,1352.00
2020.37,1756.00
2021.38,1436.00
2022.38,1750.00
2023.38,1460.00
2024.39,1653.00
2025.39,1529.00
2026.40,1791.00
2027.40,1483.00
2028.40,1716.00
2029.40,1390.00
2030.41,1763.00
2031.41,1317.00
2032.41,1709.00
2033.41,1349.00
2034.41,1785.00
2035.41,1239.00
2036.41,1630.00
2037.41,1290.00
2038.41,1720.00
2039.41,1393.00
2040.40,1657.00
2041.40,1280.00
2042.40,1720.00
2043.40,1390.00
2044.39,1821.00
2045.39,1300.00
2046.39,1749.00
2047.38,1507.00
2048.38,1722.00
2049.37,1336.00
2050.37,1693.00
2051.36,1301.00
2052.36,1721.00
2053.35,1323.00
2054.34,1708.00
2055.34,1362.00
2056.33,1568.00
2057.32,1317.00
2058.31,1742.00
2059.30,1294.00
2060.30,1655.00
2061.29,1257.00
2062.28,1688.00
2063.27,1295.00
2064.26,1683.00
2065.25,1196.00
2066.23,1487.00
2067.22,1357.00
2068.21,1559.00
2069.20,1251.00
2070.19,1632.00
2071.17,1135.00
2072.16,1635.00
2073.15,1366.00
2074.13,1453.00
2075.12,1173.00
2076.11,1571.00
2077.09,1255.00
2078.08,1435.00
2079.06,1174.00
2080.04,1561.00
2081.03,1324.00
2082.01,1664.00
2083.00,1246.00
2083.98,1499.00
2084.96,1155.00
2085.94,1505.00
2086.92,1182.00
2087.91,1497.00
2088.89,1327.00
2089.87,1572.00
2090.85,1345.00
2091.83,1487.00
2092.81,1094.00
2093.79,1564.00
2094.77,1161.00
2095.74,1499.00
2096.72,1116.00
2097.70,1524.00
2098.68,1314.00
2099.66,1588.00
2100.63,1255.00
2101.61,1412.00
2102.59,1145.00
2103.56,1584.00
2104.54,1257.00
2105.51,1435.00
2106.49,1066.00
2107.46,1401.00
2108.44,1182.00
2109.41,1443.00
2110.38,1153.00
2111.36,1486.00
2112.33,1071.00
2113.30,1487.00
2114.27,1024.00
2115.25,1341.00
2116.22,1139.00
2117.19,1471.00
2118.16,1095.00
2119.13,1409.00
2120.10,1212.00
2121.07,1388.00
2122.04,1080.00
2123.01,1363.00
2123.98,1182.00
2124.95,1405.00
2125.91,1020.00
2126.88,1326.00
2127.85,932.00
2128.82,1420.00
2129.78,1178.00
2130.75,1294.00
2131.72,996.00
2132.68,1392.00
2133.65,998.00
2134.61,1392.00
2135.58,973.00
2136.54,1320.00
2137.51,1042.00
2138.47,1325.00
2139.43,1040.00
2140.40,1432.00
2141.36,1013.00
2142.32,1343.00
2143.29,972.00
2144.25,1338.00
2145.21,1069.00
2146.17,1295.00
2147.13,1071.00
2148.09,1458.00
2149.05,1129.00
2150.01,1310.00
2150.97,1171.00
2151.93,1359.00
2152.89,1059.00
2153.85,1298.00
2154.81,1017.00
2155.76,1427.00
2156.72,1092.00
2157.68,1428.00
2158.64,1120.00
2159.59,1348.00
2160.55,1173.00
2161.51,1417.00
2162.46,1110.00
2163.42,1307.00
2164.37,1093.00
2165.33,1438.00
2166.28,1098.00
2167.24,1342.00
2168.19,1087.00
2169.14,1508.00
2170.10,1164.00
2171.05,1590.00
2172.00,1129.00
2172.95,1407.00
2173.91,1088.00
2174.86,1381.00
2175.81,1065.00
2176.76,1376.00
2177.71,1108.00
2178.66,1496.00
2179.61,1124.00
2180.56,1352.00
2181.51,1272.00
2182.46,1337.00
2183.41,1232.00
2184.36,1506.00
2185.30,1077.00
2186.25,1442.00
2187.20,1143.00
2188.15,1461.00
2189.09,1259.00
2190.04,1461.00
2190.99,1112.00
2191.93,1453.00
2192.88,1131.00
2193.82,1464.00
2194.77,1085.00
2195.71,1519.00
2196.66,984.00
2197.60,1417.00
2198.54,1077.00
2199.49,1439.00
2200.43,1072.00
2201.37,1404.00
2202.32,1072.00
2203.26,1421.00
2204.20,1053.00
2205.14,1501.00
2206.08,1266.00
2207.02,1486.00
2207.96,1142.00
2208.90,1398.00
2209.84,1237.00
2210.78,1453.00
2211.72,1107.00
2212.66,1482.00
2213.60,1072.00
2214.54,1465.00
2215.48,1182.00
2216.42,1514.00
2217.35,1101.00
2218.29,1440.00
2219.23,1017.00
2220.16,1471.00
2221.10,1125.00
2222.04,1433.00
2222.97,1131.00
2223.91,1511.00
2224.84,1093.00
2225.78,1423.00
2226.71,1122.00
2227.65,1494.00
2228.58,1174.00
2229.51,1427.00
2230.45,1211.00
2231.38,1530.00
2232.31,1081.00
2233.24,1456.00
2234.18,1148.00
2235.11,1548.00
2236.04,1132.00
2236.97,1477.00
2237.90,1161.00
2238.83,1451.00
2239.76,1144.00
2240.69,1389.00
2241.62,1154.00
2242.55,1521.00
2243.48,1267.00
2244.41,1340.00
2245.34,1082.00
2246.27,1540.00
2247.19,1107.00
2248.12,1603.00
2249.05,1129.00
2249.98,1559.00
2250.90,1180.00
2251.83,1406.00
2252.75,1233.00
2253.68,1475.00
2254.61,1183.00
2255.53,1557.00
2256.46,1187.00
2257.38,1528.00
2258.31,1115.00
2259.23,1462.00
2260.15,1144.00
2261.08,1563.00
2262.00,1158.00
2262.92,1541.00
2263.85,1090.00
2264.77,1493.00
2265.69,1083.00
2266.61,1487.00
2267.53,1152.00
2268.45,1485.00
2269.37,1052.00
2270.30,1528.00
2271.22,1061.00
2272.14,1515.00
2273.05,1278.00
2273.97,1380.00
2274.89,1131.00
2275.81,1534.00
2276.73,1135.00
2277.65,1427.00
2278.57,1199.00
2279.48,1526.00
2280.40,1100.00
2281.32,1353.00
2282.24,1108.00
2283.15,1397.00
2284.07,1034.00
2284.98,1406.00
2285.90,1063.00
2286.82,1517.00
2287.73,1098.00
2288.65,1460.00
2289.56,1101.00
2290.47,1468.00
2291.39,1136.00
2292.30,1533.00
2293.21,1076.00
2294.13,1313.00
2295.04,1098.00
2295.95,1396.00
2296.87,1101.00
2297.78,1452.00
2298.69,912.00
2299.60,1320.00
2300.51,1095.00
2301.42,1478.00
2302.33,1061.00
2303.24,1477.00
2304.15,1094.00
2305.06,1419.00
2305.97,1033.00
2306.88,1354.00
2307.79,1092.00
2308.70,1346.00
2309.61,973.00
2310.51,1255.00
2311.42,960.00
2312.33,1316.00
2313.24,1001.00
2314.14,1266.00
2315.05,1033.00
2315.96,1370.00
2316.86,972.00
2317.77,1269.00
2318.67,918.00
2319.58,1258.00
2320.48,984.00
2321.39,1447.00
2322.29,941.00
2323.20,1387.00
2324.10,964.00
2325.00,1195.00
2325.91,937.00
2326.81,1304.00
2327.71,1130.00
2328.62,1190.00
2329.52,1003.00
2330.42,1225.00
2331.32,895.00
2332.22,1264.00
2333.12,859.00
2334.03,1139.00
2334.93,966.00
2335.83,1178.00
2336.73,980.00
2337.63,1153.00
2338.53,913.00
2339.42,1285.00
2340.32,930.00
2341.22,1218.00
2342.12,954.00
2343.02,1281.00
2343.92,861.00
2344.81,1133.00
2345.71,894.00
2346.61,1261.00
2347.51,888.00
2348.40,1064.00
2349.30,830.00
2350.19,1305.00
2351.09,852.00
2351.98,1192.00
2352.88,943.00
2353.77,1329.00
2354.67,877.00
2355.56,1075.00
2356.46,841.00
2357.35,1145.00
2358.25,916.00
2359.14,1194.00
2360.03,851.00
2360.92,1139.00
2361.82,861.00
2362.71,1218.00
2363.60,892.00
2364.49,1163.00
2365.38,868.00
2366.28,1178.00
2367.17,943.00
2368.06,1111.00
2368.95,842.00
2369.84,1242.00
2370.73,887.00
2371.62,1248.00
2372.51,864.00
2373.40,1323.00
2374.28,870.00
2375.17,1211.00
2376.06,898.00
2376.95,1227.00
2377.84,909.00
2378.72,1169.00
2379.61,822.00
2380.50,1275.00
2381.39,802.00
2382.27,1203.00
2383.16,778.00
2384.04,1118.00
2384.93,703.00
2385.81,1147.00
2386.70,872.00
2387.59,1242.00
2388.47,863.00
2389.35,1095.00
2390.24,967.00
2391.12,1197.00
2392.01,894.00
2392.89,1068.00
2393.77,874.00
2394.66,1145.00
2395.54,874.00
2396.42,1070.00
2397.30,874.00
2398.18,1189.00
2399.07,836.00
2399.95,1212.00
2400.83,858.00
2401.71,1277.00
2402.59,816.00
2403.47,1186.00
2404.35,899.00
2405.23,1054.00
2406.11,834.00
2406.99,1225.00
2407.87,797.00
2408.75,1194.00
2409.62,868.00
2410.50,1168.00
2411.38,921.00
2412.26,1261.00
2413.14,993.00
2414.01,1299.00
2414.89,964.00
2415.77,1188.00
2416.64,748.00
2417.52,1261.00
2418.40,857.00
2419.27,1108.00
2420.15,855.00
2421.02,1341.00
2421.90,976.00
2422.77,1214.00
2423.65,867.00
2424.52,1195.00
2425.40,875.00
2426.27,1322.00
2427.14,1000.00
2428.02,1216.00
2428.89,885.00
2429.76,1349.00
2430.64,933.00
2431.51,1234.00
2432.38,954.00
2433.25,1230.00
2434.12,837.00
2434.99,1226.00
2435.87,891.00
2436.74,1241.00
2437.61,905.00
2438.48,1302.00
2439.35,1024.00
2440.22,1218.00
2441.09,907.00
2441.96,1304.00
2442.83,956.00
2443.69,1147.00
2444.56,896.00
2445.43,1262.00
2446.30,804.00
2447.17,1158.00
2448.04,947.00
2448.90,1273.00
2449.77,1000.00
2450.64,1290.00
2451.50,857.00
2452.37,1318.00
2453.24,772.00
2454.10,1344.00
2454.97,899.00
2455.83,1296.00
2456.70,853.00
2457.56,1306.00
2458.43,889.00
2459.29,1312.00
2460.16,953.00
2461.02,1422.00
2461.89,859.00
2462.75,1240.00
2463.61,857.00
2464.48,1307.00
2465.34,871.00
2466.20,1410.00
2467.06,879.00
2467.93,1351.00
2468.79,940.00
2469.65,1323.00
2470.51,860.00
2471.37,1331.00
2472.23,916.00
2473.10,1173.00
2473.96,1023.00
2474.82,1368.00
2475.68,900.00
2476.54,1089.00
2477.40,868.00
2478.26,1292.00
2479.11,831.00
2479.97,1287.00
2480.83,958.00
2481.69,1298.00
2482.55,914.00
2483.41,1232.00
2484.26,880.00
2485.12,1184.00
2485.98,831.00
2486.84,1293.00
2487.69,959.00
2488.55,1361.00
2489.41,987.00
2490.26,1306.00
2491.12,871.00
2491.97,1339.00
2492.83,871.00
2493.68,1326.00
2494.54,916.00
2495.39,1474.00
2496.25,922.00
2497.10,1406.00
2497.96,1018.00
2498.81,1392.00
2499.67,908.00
2500.52,1257.00
2501.37,1002.00
2502.22,1338.00
2503.08,996.00
2503.93,1321.00
2504.78,919.00
2505.63,1274.00
2506.49,970.00
2507.34,1359.00
2508.19,1025.00
2509.04,1365.00
2509.89,880.00
2510.74,1377.00
2511.59,887.00
2512.44,1238.00
2513.29,937.00
2514.14,1311.00
2514.99,899.00
2515.84,1269.00
2516.69,773.00
2517.54,1394.00
2518.39,967.00
2519.24,1234.00
2520.08,982.00
2520.93,1300.00
2521.78,901.00
2522.63,1315.00
2523.48,1039.00
2524.32,1275.00
2525.17,867.00
2526.02,1309.00
2526.86,982.00
2527.71,1326.00
2528.56,865.00
2529.40,1214.00
2530.25,872.00
2531.09,1297.00
2531.94,918.00
2532.78,1134.00
2533.63,920.00
2534.47,1299.00
2535.32,955.00
2536.16,1383.00
2537.00,865.00
2537.85,1317.00
2538.69,881.00
2539.53,1217.00
2540.38,963.00
2541.22,1328.00
2542.06,855.00
2542.90,1388.00
2543.75,794.00
2544.59,1305.00
2545.43,865.00
2546.27,1239.00
2547.11,889.00
2547.95,1206.00
2548.79,986.00
2549.64,1195.00
2550.48,863.00
2551.32,1280.00
2552.16,797.00
2553.00,1406.00
2553.84,889.00
2554.67,1288.00
2555.51,982.00
2556.35,1273.00
2557.19,880.00
2558.03,1220.00
2558.87,889.00
2559.71,1242.00
2560.54,826.00
2561.38,1306.00
2562.22,897.00
2563.06,1269.00
2563.89,817.00
2564.73,1255.00
2565.57,924.00
2566.40,1258.00
2567.24,740.00
2568.07,1222.00
2568.91,832.00
2569.75,1496.00
2570.58,856.00
2571.42,1285.00
2572.25,980.00
2573.09,1324.00
2573.92,881.00
2574.75,1264.00
2575.59,815.00
2576.42,1375.00
2577.26,895.00
2578.09,1266.00
2578.92,858.00
2579.76,1463.00
2580.59,979.00
2581.42,1315.00
2582.25,1003.00
2583.09,1310.00
2583.92,954.00
2584.75,1323.00
2585.58,900.00
2586.41,1381.00
2587.24,1001.00
2588.07,1278.00
2588.91,831.00
2589.74,1305.00
2590.57,825.00
2591.40,1472.00
2592.23,943.00
2593.06,1391.00
2593.89,925.00
2594.72,1403.00
2595.54,984.00
2596.37,1249.00
2597.20,916.00
2598.03,1216.00
2598.86,978.00
2599.69,1398.00
2600.52,907.00
2601.34,1482.00
2602.17,981.00
2603.00,1558.00
2603.82,1028.00
2604.65,1277.00
2605.48,885.00
2606.30,1333.00
2607.13,1020.00
2607.96,1506.00
2608.78,957.00
2609.61,1386.00
2610.43,939.00
2611.26,1317.00
2612.08,962.00
2612.91,1395.00
2613.73,887.00
2614.56,1304.00
2615.38,904.00
2616.21,1301.00
2617.03,828.00
2617.86,1345.00
2618.68,853.00
2619.50,1424.00
2620.33,967.00
2621.15,1281.00
2621.97,980.00
2622.79,1275.00
2623.62,935.00
2624.44,1327.00
2625.26,902.00
2626.08,1323.00
2626.90,1015.00
2627.72,1353.00
2628.55,965.00
2629.37,1461.00
2630.19,975.00
2631.01,1300.00
2631.83,1056.00
2632.65,1506.00
2633.47,1005.00
2634.29,1420.00
2635.11,907.00
2635.93,1381.00
2636.75,1078.00
2637.57,1337.00
2638.39,900.00
2639.20,1359.00
2640.02,938.00
2640.84,1367.00
2641.66,1057.00
2642.48,1315.00
2643.29,949.00
2644.11,1427.00
2644.93,992.00
2645.75,1348.00
2646.56,1028.00
2647.38,1396.00
2648.20,856.00
2649.01,0.00
2649.83,0.00
2650.65,0.00
2651.46,0.00
2652.28,0.00
