ENLIGHTEN Version,1.7.2
Measurement ID,20190716-221548-479565-WP-00438
Serial Number,WP-00438
Label,isopropanol 2mm HDPE
Integration Time,2000
Timestamp,2019-07-16 22:15:48.479565
Note,
Temperature,-99
CCD C0,807.1400146484375
CCD C1,0.11761099845170975
CCD C2,-1.6414700439781882e-05
CCD C3,2.3293600381890656e-09
CCD Offset,0
CCD Gain,8.0
Laser Wavelength,785.0
Laser Enable,True
Laser Power,100.0
Laser Temperature,-99
Pixel Count,1952

Wavenumber,Processed
349.43,0.00
351.23,0.00
353.04,0.00
354.84,6557.00
356.64,5442.00
358.44,6608.00
360.24,5458.00
362.04,6312.00
363.84,5485.00
365.64,6677.00
367.43,5537.00
369.23,6634.00
371.02,5670.00
372.81,6661.00
374.60,5510.00
376.39,6552.00
378.18,5636.00
379.97,6296.00
381.76,5562.00
383.55,6560.00
385.33,5465.00
387.11,6416.00
388.90,5495.00
390.68,6281.00
392.46,5381.00
394.24,6520.00
396.02,5400.00
397.80,6276.00
399.58,5595.00
401.35,6265.00
403.13,5486.00
404.90,6532.00
406.68,5447.00
408.45,6528.00
410.22,5466.00
411.99,6442.00
413.76,5498.00
415.53,6396.00
417.30,5625.00
419.06,6579.00
420.83,5553.00
422.59,6499.00
424.35,5586.00
426.12,6474.00
427.88,5420.00
429.64,6493.00
431.40,5480.00
433.16,6562.00
434.91,5478.00
436.67,6430.00
438.43,5774.00
440.18,6614.00
441.93,5492.00
443.69,6444.00
445.44,5284.00
447.19,6322.00
448.94,5431.00
450.69,6364.00
452.43,5422.00
454.18,6241.00
455.92,5410.00
457.67,6039.00
459.41,5110.00
461.16,5940.00
462.90,5302.00
464.64,5911.00
466.38,5232.00
468.12,5914.00
469.85,5208.00
471.59,6087.00
473.33,5081.00
475.06,6005.00
476.80,5070.00
478.53,5900.00
480.26,5135.00
481.99,5874.00
483.72,5020.00
485.45,5886.00
487.18,4956.00
488.91,5791.00
490.63,4986.00
492.36,5604.00
494.08,5052.00
495.80,5751.00
497.53,4798.00
499.25,5702.00
500.97,4884.00
502.69,5566.00
504.41,4803.00
506.12,5410.00
507.84,4711.00
509.56,5521.00
511.27,4778.00
512.98,5534.00
514.70,4568.00
516.41,5208.00
518.12,4643.00
519.83,5254.00
521.54,4629.00
523.25,5540.00
524.95,4580.00
526.66,5333.00
528.36,4653.00
530.07,5370.00
531.77,4493.00
533.47,5320.00
535.18,4605.00
536.88,5473.00
538.58,4523.00
540.27,5394.00
541.97,4535.00
543.67,5277.00
545.36,4267.00
547.06,5290.00
548.75,4459.00
550.45,5335.00
552.14,4285.00
553.83,5168.00
555.52,4345.00
557.21,5090.00
558.90,4464.00
560.58,5131.00
562.27,4345.00
563.96,5166.00
565.64,4565.00
567.32,5164.00
569.01,4371.00
570.69,5085.00
572.37,4253.00
574.05,4948.00
575.73,4363.00
577.41,4934.00
579.08,4338.00
580.76,5027.00
582.44,4296.00
584.11,5088.00
585.78,4366.00
587.46,4803.00
589.13,4375.00
590.80,5117.00
592.47,4387.00
594.14,5211.00
595.81,4464.00
597.47,5055.00
599.14,4128.00
600.80,4980.00
602.47,4300.00
604.13,5008.00
605.79,4132.00
607.46,4897.00
609.12,4490.00
610.78,4992.00
612.44,4248.00
614.09,4869.00
615.75,4205.00
617.41,5122.00
619.06,4081.00
620.72,4803.00
622.37,4157.00
624.02,4956.00
625.67,4451.00
627.33,5004.00
628.97,4173.00
630.62,4749.00
632.27,4279.00
633.92,4884.00
635.57,4107.00
637.21,4655.00
638.86,4128.00
640.50,4776.00
642.14,4153.00
643.78,4772.00
645.42,3913.00
647.06,4720.00
648.70,3949.00
650.34,4859.00
651.98,4283.00
653.62,4689.00
655.25,3808.00
656.89,4681.00
658.52,4126.00
660.15,4526.00
661.79,3941.00
663.42,4721.00
665.05,4020.00
666.68,4508.00
668.31,4034.00
669.93,4708.00
671.56,3836.00
673.19,4547.00
674.81,3802.00
676.43,4535.00
678.06,3827.00
679.68,4621.00
681.30,3877.00
682.92,4396.00
684.54,3694.00
686.16,4456.00
687.78,3884.00
689.40,4511.00
691.01,3669.00
692.63,4448.00
694.24,3744.00
695.86,4330.00
697.47,3734.00
699.08,4594.00
700.69,3743.00
702.30,4444.00
703.91,3586.00
705.52,4543.00
707.13,3725.00
708.74,4355.00
710.34,3832.00
711.95,4418.00
713.55,3923.00
715.15,4402.00
716.76,3821.00
718.36,4507.00
719.96,3678.00
721.56,4553.00
723.16,3760.00
724.76,4264.00
726.35,3837.00
727.95,4462.00
729.55,3901.00
731.14,4636.00
732.73,3836.00
734.33,4403.00
735.92,3805.00
737.51,4607.00
739.10,3891.00
740.69,4632.00
742.28,3828.00
743.87,4552.00
745.46,3852.00
747.04,4435.00
748.63,3742.00
750.21,4533.00
751.80,3763.00
753.38,4469.00
754.96,3910.00
756.54,4259.00
758.12,4118.00
759.70,4585.00
761.28,3931.00
762.86,4547.00
764.44,3820.00
766.01,4711.00
767.59,3894.00
769.16,4630.00
770.74,3804.00
772.31,4770.00
773.88,3808.00
775.45,4647.00
777.02,4066.00
778.59,4775.00
780.16,3941.00
781.73,4776.00
783.30,4026.00
784.86,4874.00
786.43,4016.00
787.99,4832.00
789.56,4213.00
791.12,4772.00
792.68,4336.00
794.24,5033.00
795.80,4312.00
797.36,5076.00
798.92,4525.00
800.48,5283.00
802.04,4759.00
803.59,5338.00
805.15,4890.00
806.70,5604.00
808.26,5136.00
809.81,5717.00
811.36,5063.00
812.91,6054.00
814.46,5233.00
816.01,6053.00
817.56,5426.00
819.11,6141.00
820.66,5487.00
822.20,5975.00
823.75,5374.00
825.30,5812.00
826.84,4927.00
828.38,5788.00
829.93,4859.00
831.47,5657.00
833.01,4774.00
834.55,5790.00
836.09,4793.00
837.63,5421.00
839.16,4764.00
840.70,5490.00
842.24,4743.00
843.77,5290.00
845.31,4623.00
846.84,5440.00
848.37,4832.00
849.90,5375.00
851.44,4584.00
852.97,5312.00
854.50,4629.00
856.03,5641.00
857.55,4686.00
859.08,5558.00
860.61,4477.00
862.13,5071.00
863.66,4645.00
865.18,5593.00
866.70,4670.00
868.23,5353.00
869.75,4617.00
871.27,5478.00
872.79,4802.00
874.31,5482.00
875.83,4770.00
877.35,5261.00
878.86,4722.00
880.38,5381.00
881.89,4616.00
883.41,5507.00
884.92,4727.00
886.44,5427.00
887.95,4447.00
889.46,5302.00
890.97,4629.00
892.48,5388.00
893.99,4689.00
895.50,5460.00
897.01,4677.00
898.51,5173.00
900.02,4716.00
901.52,5223.00
903.03,4550.00
904.53,5449.00
906.04,4471.00
907.54,5302.00
909.04,4537.00
910.54,5105.00
912.04,4683.00
913.54,5370.00
915.04,4533.00
916.53,5096.00
918.03,4676.00
919.53,5177.00
921.02,4453.00
922.52,5432.00
924.01,4511.00
925.50,5113.00
927.00,4526.00
928.49,5114.00
929.98,4411.00
931.47,4960.00
932.96,4506.00
934.44,5237.00
935.93,4349.00
937.42,5059.00
938.90,4462.00
940.39,5369.00
941.87,4457.00
943.36,5088.00
944.84,4598.00
946.32,5122.00
947.80,4365.00
949.29,5041.00
950.77,4222.00
952.24,5084.00
953.72,4414.00
955.20,5070.00
956.68,4171.00
958.15,4943.00
959.63,4333.00
961.10,4821.00
962.58,4169.00
964.05,4764.00
965.52,4085.00
967.00,4836.00
968.47,3992.00
969.94,4648.00
971.41,4027.00
972.87,4581.00
974.34,4023.00
975.81,4468.00
977.28,4101.00
978.74,4556.00
980.21,4039.00
981.67,4708.00
983.13,4000.00
984.60,4738.00
986.06,4023.00
987.52,4432.00
988.98,3897.00
990.44,4576.00
991.90,3857.00
993.36,4571.00
994.82,3864.00
996.27,4576.00
997.73,4108.00
999.18,4658.00
1000.64,3893.00
1002.09,4496.00
1003.55,3948.00
1005.00,4631.00
1006.45,3753.00
1007.90,4821.00
1009.35,3845.00
1010.80,4606.00
1012.25,3813.00
1013.70,4605.00
1015.14,4132.00
1016.59,4573.00
1018.04,4079.00
1019.48,4717.00
1020.93,3955.00
1022.37,4744.00
1023.81,4219.00
1025.25,4725.00
1026.70,4152.00
1028.14,4784.00
1029.58,4344.00
1031.02,4935.00
1032.45,4363.00
1033.89,5477.00
1035.33,5035.00
1036.77,5784.00
1038.20,5816.00
1039.64,6806.00
1041.07,6420.00
1042.50,7463.00
1043.94,6892.00
1045.37,7872.00
1046.80,7070.00
1048.23,7955.00
1049.66,6863.00
1051.09,7718.00
1052.52,6845.00
1053.95,7628.00
1055.37,6761.00
1056.80,7647.00
1058.23,6967.00
1059.65,7680.00
1061.08,6937.00
1062.50,7487.00
1063.92,6875.00
1065.34,7177.00
1066.76,6461.00
1068.19,7393.00
1069.61,6326.00
1071.02,6772.00
1072.44,6259.00
1073.86,6700.00
1075.28,5943.00
1076.69,6376.00
1078.11,5899.00
1079.53,6281.00
1080.94,5620.00
1082.35,6385.00
1083.77,5428.00
1085.18,6000.00
1086.59,5420.00
1088.00,5812.00
1089.41,5221.00
1090.82,5811.00
1092.23,5283.00
1093.64,5795.00
1095.04,5243.00
1096.45,6148.00
1097.86,5548.00
1099.26,6410.00
1100.67,6051.00
1102.07,6955.00
1103.47,6695.00
1104.88,7598.00
1106.28,7694.00
1107.68,8621.00
1109.08,8030.00
1110.48,9599.00
1111.88,8646.00
1113.28,9690.00
1114.67,8741.00
1116.07,9100.00
1117.47,8344.00
1118.86,8757.00
1120.26,7886.00
1121.65,8616.00
1123.05,7953.00
1124.44,8415.00
1125.83,7596.00
1127.22,8180.00
1128.61,7522.00
1130.00,8246.00
1131.39,7324.00
1132.78,8056.00
1134.17,7313.00
1135.56,7828.00
1136.94,6863.00
1138.33,7529.00
1139.72,6473.00
1141.10,6923.00
1142.48,6038.00
1143.87,6978.00
1145.25,6082.00
1146.63,6756.00
1148.01,6125.00
1149.39,6759.00
1150.77,5790.00
1152.15,6810.00
1153.53,5755.00
1154.91,6307.00
1156.29,5721.00
1157.66,6229.00
1159.04,5457.00
1160.41,5921.00
1161.79,5216.00
1163.16,6072.00
1164.54,5254.00
1165.91,5618.00
1167.28,5092.00
1168.65,5768.00
1170.02,5104.00
1171.39,5748.00
1172.76,5205.00
1174.13,5603.00
1175.50,5031.00
1176.86,5730.00
1178.23,4967.00
1179.60,5600.00
1180.96,4847.00
1182.33,5133.00
1183.69,4775.00
1185.05,5283.00
1186.42,4718.00
1187.78,5348.00
1189.14,4726.00
1190.50,5196.00
1191.86,4599.00
1193.22,5198.00
1194.58,4661.00
1195.94,5048.00
1197.29,4564.00
1198.65,5045.00
1200.01,4553.00
1201.36,5009.00
1202.72,4562.00
1204.07,5096.00
1205.42,4518.00
1206.78,5183.00
1208.13,4663.00
1209.48,4774.00
1210.83,4399.00
1212.18,4842.00
1213.53,4473.00
1214.88,4973.00
1216.23,4281.00
1217.58,4860.00
1218.92,4475.00
1220.27,4859.00
1221.61,4313.00
1222.96,4893.00
1224.30,4365.00
1225.65,4960.00
1226.99,4410.00
1228.33,4784.00
1229.67,4131.00
1231.01,4782.00
1232.36,4447.00
1233.70,4665.00
1235.03,4331.00
1236.37,4890.00
1237.71,4139.00
1239.05,4854.00
1240.38,4281.00
1241.72,4835.00
1243.06,4296.00
1244.39,4932.00
1245.72,4368.00
1247.06,4573.00
1248.39,4680.00
1249.72,4795.00
1251.05,4489.00
1252.39,4901.00
1253.72,4482.00
1255.05,5119.00
1256.37,4549.00
1257.70,5070.00
1259.03,4597.00
1260.36,5136.00
1261.68,4786.00
1263.01,5446.00
1264.33,4952.00
1265.66,5995.00
1266.98,5937.00
1268.31,6439.00
1269.63,6454.00
1270.95,7485.00
1272.27,7603.00
1273.59,8423.00
1274.91,8559.00
1276.23,9289.00
1277.55,8735.00
1278.87,9298.00
1280.19,9105.00
1281.51,9236.00
1282.82,8711.00
1284.14,9214.00
1285.45,8243.00
1286.77,8606.00
1288.08,8134.00
1289.39,8705.00
1290.71,7837.00
1292.02,8593.00
1293.33,7933.00
1294.64,8681.00
1295.95,8243.00
1297.26,8647.00
1298.57,7708.00
1299.88,7914.00
1301.19,7417.00
1302.49,7887.00
1303.80,7073.00
1305.11,7227.00
1306.41,6525.00
1307.72,7124.00
1309.02,6018.00
1310.32,6771.00
1311.63,5825.00
1312.93,6358.00
1314.23,5706.00
1315.53,5877.00
1316.83,5412.00
1318.13,5865.00
1319.43,5164.00
1320.73,5604.00
1322.03,5017.00
1323.32,5426.00
1324.62,4718.00
1325.92,5083.00
1327.21,4687.00
1328.51,5070.00
1329.80,4469.00
1331.10,4995.00
1332.39,4563.00
1333.68,4942.00
1334.97,4319.00
1336.27,5027.00
1337.56,4516.00
1338.85,5121.00
1340.14,4539.00
1341.42,4919.00
1342.71,4391.00
1344.00,5062.00
1345.29,4445.00
1346.57,5000.00
1347.86,4589.00
1349.15,5140.00
1350.43,4426.00
1351.71,5062.00
1353.00,4335.00
1354.28,5147.00
1355.56,4583.00
1356.85,5195.00
1358.13,4528.00
1359.41,4815.00
1360.69,4416.00
1361.97,5000.00
1363.25,4652.00
1364.52,4836.00
1365.80,4428.00
1367.08,4905.00
1368.35,4410.00
1369.63,4969.00
1370.91,4397.00
1372.18,4956.00
1373.45,4492.00
1374.73,5122.00
1376.00,4507.00
1377.27,5010.00
1378.54,4416.00
1379.82,5070.00
1381.09,4697.00
1382.36,5227.00
1383.63,4579.00
1384.89,5273.00
1386.16,4639.00
1387.43,5520.00
1388.70,4946.00
1389.96,5559.00
1391.23,5344.00
1392.50,6026.00
1393.76,5702.00
1395.02,6492.00
1396.29,6054.00
1397.55,6952.00
1398.81,6672.00
1400.08,7380.00
1401.34,6860.00
1402.60,7467.00
1403.86,7077.00
1405.12,7890.00
1406.38,7227.00
1407.63,7997.00
1408.89,7435.00
1410.15,8402.00
1411.41,8144.00
1412.66,8995.00
1413.92,8961.00
1415.17,9697.00
1416.43,9730.00
1417.68,10729.00
1418.93,10800.00
1420.19,11724.00
1421.44,11452.00
1422.69,12326.00
1423.94,11813.00
1425.19,12506.00
1426.44,12266.00
1427.69,12702.00
1428.94,11959.00
1430.19,12387.00
1431.43,11892.00
1432.68,12599.00
1433.93,12057.00
1435.17,12934.00
1436.42,12217.00
1437.66,13232.00
1438.91,12393.00
1440.15,13181.00
1441.39,12763.00
1442.64,13382.00
1443.88,13134.00
1445.12,13270.00
1446.36,12469.00
1447.60,13157.00
1448.84,12396.00
1450.08,12683.00
1451.32,11980.00
1452.56,12077.00
1453.79,11322.00
1455.03,11680.00
1456.27,10978.00
1457.50,11001.00
1458.74,10094.00
1459.97,10601.00
1461.21,9812.00
1462.44,10163.00
1463.67,9228.00
1464.91,9724.00
1466.14,8838.00
1467.37,9047.00
1468.60,8362.00
1469.83,8585.00
1471.06,7938.00
1472.29,8095.00
1473.52,7346.00
1474.75,7774.00
1475.97,6909.00
1477.20,7389.00
1478.43,6547.00
1479.65,6962.00
1480.88,6276.00
1482.10,6775.00
1483.33,6087.00
1484.55,6310.00
1485.77,5628.00
1487.00,5852.00
1488.22,5365.00
1489.44,5642.00
1490.66,5220.00
1491.88,5688.00
1493.10,5051.00
1494.32,5329.00
1495.54,4659.00
1496.76,5008.00
1497.97,4770.00
1499.19,5019.00
1500.41,4344.00
1501.62,4977.00
1502.84,4184.00
1504.05,5095.00
1505.27,4103.00
1506.48,4859.00
1507.70,4218.00
1508.91,4825.00
1510.12,4011.00
1511.33,4768.00
1512.54,4225.00
1513.75,4669.00
1514.96,4163.00
1516.17,4662.00
1517.38,3987.00
1518.59,4709.00
1519.80,3858.00
1521.01,4324.00
1522.21,3887.00
1523.42,4509.00
1524.63,3845.00
1525.83,4434.00
1527.04,3993.00
1528.24,4315.00
1529.44,3704.00
1530.65,4380.00
1531.85,3811.00
1533.05,4334.00
1534.25,3793.00
1535.45,4242.00
1536.65,3794.00
1537.85,4336.00
1539.05,3752.00
1540.25,4098.00
1541.45,3590.00
1542.65,4148.00
1543.85,3850.00
1545.04,3994.00
1546.24,3575.00
1547.44,3912.00
1548.63,3539.00
1549.83,4055.00
1551.02,3451.00
1552.21,4093.00
1553.41,3302.00
1554.60,3906.00
1555.79,3346.00
1556.98,3882.00
1558.17,3500.00
1559.37,3966.00
1560.56,3564.00
1561.74,3743.00
1562.93,3481.00
1564.12,3933.00
1565.31,3537.00
1566.50,3656.00
1567.68,3309.00
1568.87,3630.00
1570.06,3396.00
1571.24,3783.00
1572.43,3154.00
1573.61,3814.00
1574.80,3162.00
1575.98,3665.00
1577.16,3208.00
1578.34,3604.00
1579.53,2915.00
1580.71,3717.00
1581.89,3211.00
1583.07,3641.00
1584.25,3083.00
1585.43,3645.00
1586.61,3072.00
1587.78,3406.00
1588.96,3273.00
1590.14,3615.00
1591.32,3056.00
1592.49,3732.00
1593.67,3057.00
1594.84,3510.00
1596.02,3182.00
1597.19,3448.00
1598.37,3051.00
1599.54,3386.00
1600.71,3048.00
1601.88,3343.00
1603.06,3014.00
1604.23,3466.00
1605.40,3053.00
1606.57,3461.00
1607.74,2926.00
1608.91,3312.00
1610.07,3006.00
1611.24,3495.00
1612.41,2924.00
1613.58,3287.00
1614.74,2939.00
1615.91,3410.00
1617.08,2949.00
1618.24,3529.00
1619.41,3036.00
1620.57,3368.00
1621.73,3011.00
1622.90,3438.00
1624.06,2865.00
1625.22,3483.00
1626.38,2806.00
1627.54,3368.00
1628.70,3017.00
1629.87,3398.00
1631.02,2894.00
1632.18,3235.00
1633.34,2940.00
1634.50,3368.00
1635.66,2843.00
1636.82,3472.00
1637.97,3051.00
1639.13,3536.00
1640.28,3109.00
1641.44,3275.00
1642.59,2876.00
1643.75,3336.00
1644.90,2946.00
1646.06,3376.00
1647.21,2846.00
1648.36,3353.00
1649.51,2891.00
1650.66,3328.00
1651.81,3073.00
1652.97,3186.00
1654.11,2681.00
1655.26,3147.00
1656.41,2971.00
1657.56,3419.00
1658.71,2833.00
1659.86,3201.00
1661.00,2746.00
1662.15,3421.00
1663.30,2870.00
1664.44,3484.00
1665.59,2943.00
1666.73,3325.00
1667.88,3005.00
1669.02,3200.00
1670.16,2705.00
1671.30,3144.00
1672.45,2749.00
1673.59,3228.00
1674.73,2809.00
1675.87,3265.00
1677.01,2925.00
1678.15,3324.00
1679.29,2996.00
1680.43,3378.00
1681.57,2757.00
1682.70,3296.00
1683.84,3011.00
1684.98,3235.00
1686.12,3003.00
1687.25,3137.00
1688.39,2838.00
1689.52,3177.00
1690.66,3011.00
1691.79,3318.00
1692.92,2871.00
1694.06,3423.00
1695.19,2804.00
1696.32,3303.00
1697.45,2905.00
1698.58,3470.00
1699.72,2728.00
1700.85,3326.00
1701.98,2948.00
1703.10,3408.00
1704.23,2950.00
1705.36,3331.00
1706.49,2889.00
1707.62,3265.00
1708.74,2836.00
1709.87,3522.00
1711.00,2880.00
1712.12,3289.00
1713.25,3054.00
1714.37,3244.00
1715.50,2953.00
1716.62,3561.00
1717.74,2725.00
1718.87,3324.00
1719.99,2861.00
1721.11,3342.00
1722.23,2755.00
1723.35,3224.00
1724.47,2773.00
1725.59,3426.00
1726.71,2993.00
1727.83,3426.00
1728.95,2958.00
1730.07,3297.00
1731.19,2834.00
1732.30,3314.00
1733.42,2908.00
1734.54,3179.00
1735.65,2872.00
1736.77,3243.00
1737.88,2954.00
1739.00,3459.00
1740.11,2954.00
1741.23,3331.00
1742.34,2827.00
1743.45,3272.00
1744.56,2671.00
1745.68,3418.00
1746.79,2875.00
1747.90,3217.00
1749.01,2888.00
1750.12,3240.00
1751.23,2660.00
1752.34,3075.00
1753.45,2712.00
1754.55,3100.00
1755.66,2781.00
1756.77,3235.00
1757.88,2818.00
1758.98,3028.00
1760.09,2773.00
1761.19,3222.00
1762.30,2743.00
1763.40,3200.00
1764.51,2796.00
1765.61,3033.00
1766.71,2602.00
1767.82,3022.00
1768.92,2653.00
1770.02,2986.00
1771.12,2565.00
1772.22,2931.00
1773.32,2642.00
1774.42,3118.00
1775.52,2510.00
1776.62,3076.00
1777.72,2467.00
1778.82,2982.00
1779.92,2560.00
1781.01,2990.00
1782.11,2386.00
1783.21,2937.00
1784.30,2505.00
1785.40,2753.00
1786.50,2518.00
1787.59,2857.00
1788.68,2563.00
1789.78,2936.00
1790.87,2508.00
1791.96,2926.00
1793.06,2442.00
1794.15,2827.00
1795.24,2381.00
1796.33,2919.00
1797.42,2400.00
1798.51,2876.00
1799.60,2447.00
1800.69,2824.00
1801.78,2243.00
1802.87,2830.00
1803.96,2308.00
1805.05,2612.00
1806.13,2370.00
1807.22,2777.00
1808.31,2359.00
1809.39,2672.00
1810.48,2274.00
1811.56,2638.00
1812.65,2184.00
1813.73,2572.00
1814.82,2272.00
1815.90,2604.00
1816.98,2219.00
1818.07,2792.00
1819.15,2233.00
1820.23,2625.00
1821.31,2154.00
1822.39,2466.00
1823.47,2211.00
1824.55,2459.00
1825.63,2132.00
1826.71,2279.00
1827.79,2240.00
1828.87,2506.00
1829.95,2044.00
1831.02,2473.00
1832.10,1939.00
1833.18,2358.00
1834.25,1969.00
1835.33,2371.00
1836.40,1957.00
1837.48,2394.00
1838.55,1903.00
1839.63,2418.00
1840.70,1956.00
1841.77,2261.00
1842.85,2030.00
1843.92,2290.00
1844.99,1868.00
1846.06,2201.00
1847.13,1828.00
1848.20,2392.00
1849.28,1847.00
1850.34,2180.00
1851.41,1889.00
1852.48,2198.00
1853.55,1872.00
1854.62,1930.00
1855.69,1854.00
1856.76,2069.00
1857.82,1698.00
1858.89,2195.00
1859.95,1798.00
1861.02,2069.00
1862.09,1642.00
1863.15,1977.00
1864.21,1730.00
1865.28,1980.00
1866.34,1793.00
1867.41,2274.00
1868.47,1760.00
1869.53,2057.00
1870.59,1806.00
1871.65,1975.00
1872.71,1751.00
1873.78,2038.00
1874.84,1634.00
1875.90,2036.00
1876.96,1668.00
1878.01,2027.00
1879.07,1673.00
1880.13,1914.00
1881.19,1561.00
1882.25,2031.00
1883.30,1701.00
1884.36,1941.00
1885.42,1610.00
1886.47,2069.00
1887.53,1580.00
1888.58,2065.00
1889.64,1611.00
1890.69,1950.00
1891.74,1589.00
1892.80,1944.00
1893.85,1608.00
1894.90,1837.00
1895.96,1632.00
1897.01,2008.00
1898.06,1822.00
1899.11,1954.00
1900.16,1726.00
1901.21,2026.00
1902.26,1587.00
1903.31,1912.00
1904.36,1608.00
1905.41,1810.00
1906.45,1589.00
1907.50,1884.00
1908.55,1618.00
1909.60,1841.00
1910.64,1580.00
1911.69,1881.00
1912.73,1494.00
1913.78,1968.00
1914.82,1577.00
1915.87,1883.00
1916.91,1504.00
1917.96,1852.00
1919.00,1587.00
1920.04,1901.00
1921.08,1497.00
1922.13,1970.00
1923.17,1627.00
1924.21,1984.00
1925.25,1395.00
1926.29,1858.00
1927.33,1571.00
1928.37,1969.00
1929.41,1473.00
1930.45,1873.00
1931.49,1621.00
1932.53,1933.00
1933.56,1500.00
1934.60,1921.00
1935.64,1386.00
1936.67,1767.00
1937.71,1494.00
1938.75,1865.00
1939.78,1559.00
1940.82,1844.00
1941.85,1584.00
1942.89,1827.00
1943.92,1627.00
1944.95,1776.00
1945.99,1543.00
1947.02,1914.00
1948.05,1482.00
1949.08,1918.00
1950.11,1598.00
1951.15,1793.00
1952.18,1393.00
1953.21,1873.00
1954.24,1502.00
1955.27,1769.00
1956.30,1367.00
1957.32,1870.00
1958.35,1578.00
1959.38,1833.00
1960.41,1485.00
1961.44,1857.00
1962.46,1537.00
1963.49,1859.00
1964.51,1494.00
1965.54,1754.00
1966.57,1403.00
1967.59,1914.00
1968.62,1447.00
1969.64,1951.00
1970.66,1448.00
1971.69,1773.00
1972.71,1578.00
1973.73,1818.00
1974.75,1328.00
1975.78,1801.00
1976.80,1461.00
1977.82,1700.00
1978.84,1385.00
1979.86,1747.00
1980.88,1465.00
1981.90,1663.00
1982.92,1500.00
1983.94,1816.00
1984.96,1533.00
1985.98,1752.00
1986.99,1358.00
1988.01,1846.00
1989.03,1416.00
1990.04,1883.00
1991.06,1409.00
1992.08,1711.00
1993.09,1382.00
1994.11,1837.00
1995.12,1476.00
1996.14,1867.00
1997.15,1352.00
1998.16,1671.00
1999.18,1384.00
2000.19,1782.00
2001.20,1480.00
2002.21,1745.00
2003.23,1328.00
2004.24,1775.00
2005.25,1415.00
2006.26,1786.00
2007.27,1451.00
2008.28,1848.00
2009.29,1377.00
2010.30,1684.00
2011.31,1339.00
2012.32,1655.00
2013.32,1500.00
2014.33,1705.00
2015.34,1444.00
2016.35,1715.00
2017.35,1359.00
2018.36,1699.00
2019.36,1284.00
2020.37,1634.00
2021.38,1253.00
2022.38,1765.00
2023.38,1379.00
2024.39,1712.00
2025.39,1362.00
2026.40,1759.00
2027.40,1419.00
2028.40,1682.00
2029.40,1348.00
2030.41,1683.00
2031.41,1317.00
2032.41,1823.00
2033.41,1321.00
2034.41,1666.00
2035.41,1411.00
2036.41,1618.00
2037.41,1255.00
2038.41,1798.00
2039.41,1328.00
2040.40,1643.00
2041.40,1318.00
2042.40,1702.00
2043.40,1310.00
2044.39,1698.00
2045.39,1296.00
2046.39,1713.00
2047.38,1339.00
2048.38,1602.00
2049.37,1330.00
2050.37,1559.00
2051.36,1288.00
2052.36,1691.00
2053.35,1382.00
2054.34,1638.00
2055.34,1300.00
2056.33,1496.00
2057.32,1138.00
2058.31,1557.00
2059.30,1251.00
2060.30,1650.00
2061.29,1264.00
2062.28,1620.00
2063.27,1221.00
2064.26,1534.00
2065.25,1197.00
2066.23,1600.00
2067.22,1221.00
2068.21,1583.00
2069.20,1080.00
2070.19,1473.00
2071.17,1198.00
2072.16,1501.00
2073.15,1246.00
2074.13,1455.00
2075.12,1151.00
2076.11,1543.00
2077.09,1178.00
2078.08,1499.00
2079.06,1274.00
2080.04,1566.00
2081.03,1117.00
2082.01,1337.00
2083.00,1132.00
2083.98,1377.00
2084.96,1073.00
2085.94,1385.00
2086.92,1219.00
2087.91,1366.00
2088.89,1210.00
2089.87,1378.00
2090.85,1110.00
2091.83,1335.00
2092.81,1038.00
2093.79,1360.00
2094.77,978.00
2095.74,1396.00
2096.72,1092.00
2097.70,1337.00
2098.68,1075.00
2099.66,1495.00
2100.63,1162.00
2101.61,1351.00
2102.59,1182.00
2103.56,1312.00
2104.54,1086.00
2105.51,1371.00
2106.49,1032.00
2107.46,1315.00
2108.44,996.00
2109.41,1331.00
2110.38,1072.00
2111.36,1339.00
2112.33,1019.00
2113.30,1256.00
2114.27,1000.00
2115.25,1286.00
2116.22,1069.00
2117.19,1231.00
2118.16,1015.00
2119.13,1294.00
2120.10,894.00
2121.07,1199.00
2122.04,1007.00
2123.01,1126.00
2123.98,1000.00
2124.95,1279.00
2125.91,955.00
2126.88,1188.00
2127.85,823.00
2128.82,1319.00
2129.78,995.00
2130.75,1340.00
2131.72,986.00
2132.68,1275.00
2133.65,908.00
2134.61,1250.00
2135.58,913.00
2136.54,1180.00
2137.51,849.00
2138.47,1147.00
2139.43,859.00
2140.40,1206.00
2141.36,907.00
2142.32,1213.00
2143.29,950.00
2144.25,1170.00
2145.21,923.00
2146.17,1076.00
2147.13,1053.00
2148.09,1306.00
2149.05,926.00
2150.01,1249.00
2150.97,1018.00
2151.93,1339.00
2152.89,693.00
2153.85,1253.00
2154.81,962.00
2155.76,1267.00
2156.72,876.00
2157.68,1289.00
2158.64,1014.00
2159.59,1181.00
2160.55,900.00
2161.51,1283.00
2162.46,936.00
2163.42,1211.00
2164.37,1008.00
2165.33,1224.00
2166.28,897.00
2167.24,1238.00
2168.19,892.00
2169.14,1155.00
2170.10,940.00
2171.05,1240.00
2172.00,969.00
2172.95,1341.00
2173.91,1023.00
2174.86,1186.00
2175.81,969.00
2176.76,1285.00
2177.71,878.00
2178.66,1328.00
2179.61,1011.00
2180.56,1348.00
2181.51,1077.00
2182.46,1266.00
2183.41,937.00
2184.36,1279.00
2185.30,932.00
2186.25,1301.00
2187.20,888.00
2188.15,1175.00
2189.09,1003.00
2190.04,1373.00
2190.99,908.00
2191.93,1291.00
2192.88,959.00
2193.82,1210.00
2194.77,883.00
2195.71,1301.00
2196.66,964.00
2197.60,1266.00
2198.54,898.00
2199.49,1177.00
2200.43,949.00
2201.37,1334.00
2202.32,1001.00
2203.26,1364.00
2204.20,874.00
2205.14,1355.00
2206.08,1015.00
2207.02,1164.00
2207.96,900.00
2208.90,1290.00
2209.84,887.00
2210.78,1294.00
2211.72,994.00
2212.66,1234.00
2213.60,1017.00
2214.54,1178.00
2215.48,1123.00
2216.42,1358.00
2217.35,990.00
2218.29,1217.00
2219.23,920.00
2220.16,1368.00
2221.10,907.00
2222.04,1274.00
2222.97,1014.00
2223.91,1224.00
2224.84,898.00
2225.78,1325.00
2226.71,972.00
2227.65,1349.00
2228.58,1036.00
2229.51,1115.00
2230.45,998.00
2231.38,1270.00
2232.31,923.00
2233.24,1150.00
2234.18,988.00
2235.11,1270.00
2236.04,962.00
2236.97,1300.00
2237.90,1063.00
2238.83,1315.00
2239.76,983.00
2240.69,1199.00
2241.62,939.00
2242.55,1289.00
2243.48,983.00
2244.41,1148.00
2245.34,1017.00
2246.27,1273.00
2247.19,1010.00
2248.12,1368.00
2249.05,950.00
2249.98,1245.00
2250.90,989.00
2251.83,1311.00
2252.75,935.00
2253.68,1247.00
2254.61,1040.00
2255.53,1210.00
2256.46,1089.00
2257.38,1348.00
2258.31,986.00
2259.23,1343.00
2260.15,956.00
2261.08,1248.00
2262.00,904.00
2262.92,1353.00
2263.85,900.00
2264.77,1288.00
2265.69,906.00
2266.61,1337.00
2267.53,1068.00
2268.45,1340.00
2269.37,996.00
2270.30,1309.00
2271.22,988.00
2272.14,1271.00
2273.05,1001.00
2273.97,1179.00
2274.89,987.00
2275.81,1402.00
2276.73,955.00
2277.65,1288.00
2278.57,928.00
2279.48,1286.00
2280.40,852.00
2281.32,1291.00
2282.24,993.00
2283.15,1257.00
2284.07,800.00
2284.98,1306.00
2285.90,949.00
2286.82,1252.00
2287.73,946.00
2288.65,1243.00
2289.56,818.00
2290.47,1323.00
2291.39,1059.00
2292.30,1204.00
2293.21,960.00
2294.13,1243.00
2295.04,962.00
2295.95,1264.00
2296.87,911.00
2297.78,1155.00
2298.69,803.00
2299.60,1203.00
2300.51,949.00
2301.42,1133.00
2302.33,947.00
2303.24,1236.00
2304.15,888.00
2305.06,1131.00
2305.97,925.00
2306.88,1268.00
2307.79,881.00
2308.70,1169.00
2309.61,856.00
2310.51,1226.00
2311.42,916.00
2312.33,1210.00
2313.24,799.00
2314.14,1146.00
2315.05,854.00
2315.96,1100.00
2316.86,919.00
2317.77,1184.00
2318.67,983.00
2319.58,1084.00
2320.48,800.00
2321.39,1182.00
2322.29,865.00
2323.20,1179.00
2324.10,862.00
2325.00,1011.00
2325.91,846.00
2326.81,1105.00
2327.71,844.00
2328.62,1084.00
2329.52,898.00
2330.42,1138.00
2331.32,829.00
2332.22,983.00
2333.12,688.00
2334.03,1009.00
2334.93,717.00
2335.83,1142.00
2336.73,795.00
2337.63,1146.00
2338.53,851.00
2339.42,1105.00
2340.32,750.00
2341.22,986.00
2342.12,877.00
2343.02,1062.00
2343.92,758.00
2344.81,938.00
2345.71,783.00
2346.61,1057.00
2347.51,800.00
2348.40,890.00
2349.30,806.00
2350.19,1142.00
2351.09,765.00
2351.98,1017.00
2352.88,773.00
2353.77,1126.00
2354.67,652.00
2355.56,1032.00
2356.46,755.00
2357.35,1060.00
2358.25,694.00
2359.14,1003.00
2360.03,789.00
2360.92,979.00
2361.82,823.00
2362.71,997.00
2363.60,703.00
2364.49,890.00
2365.38,748.00
2366.28,1019.00
2367.17,787.00
2368.06,1036.00
2368.95,842.00
2369.84,962.00
2370.73,717.00
2371.62,1113.00
2372.51,833.00
2373.40,1108.00
2374.28,755.00
2375.17,1043.00
2376.06,810.00
2376.95,1064.00
2377.84,841.00
2378.72,1099.00
2379.61,821.00
2380.50,1071.00
2381.39,737.00
2382.27,1108.00
2383.16,767.00
2384.04,1064.00
2384.93,680.00
2385.81,1069.00
2386.70,685.00
2387.59,931.00
2388.47,812.00
2389.35,996.00
2390.24,729.00
2391.12,946.00
2392.01,810.00
2392.89,974.00
2393.77,657.00
2394.66,1106.00
2395.54,797.00
2396.42,1073.00
2397.30,726.00
2398.18,1020.00
2399.07,737.00
2399.95,1080.00
2400.83,668.00
2401.71,1017.00
2402.59,714.00
2403.47,1033.00
2404.35,855.00
2405.23,1108.00
2406.11,838.00
2406.99,1046.00
2407.87,762.00
2408.75,1090.00
2409.62,717.00
2410.50,973.00
2411.38,684.00
2412.26,1069.00
2413.14,834.00
2414.01,1168.00
2414.89,735.00
2415.77,1008.00
2416.64,671.00
2417.52,1069.00
2418.40,768.00
2419.27,1079.00
2420.15,827.00
2421.02,1108.00
2421.90,787.00
2422.77,1167.00
2423.65,775.00
2424.52,1077.00
2425.40,821.00
2426.27,1146.00
2427.14,787.00
2428.02,1246.00
2428.89,802.00
2429.76,1217.00
2430.64,785.00
2431.51,1159.00
2432.38,741.00
2433.25,1125.00
2434.12,801.00
2434.99,1161.00
2435.87,748.00
2436.74,1101.00
2437.61,717.00
2438.48,1143.00
2439.35,819.00
2440.22,1078.00
2441.09,705.00
2441.96,1123.00
2442.83,727.00
2443.69,969.00
2444.56,651.00
2445.43,1096.00
2446.30,781.00
2447.17,1125.00
2448.04,737.00
2448.90,1026.00
2449.77,799.00
2450.64,1070.00
2451.50,856.00
2452.37,1091.00
2453.24,791.00
2454.10,1081.00
2454.97,749.00
2455.83,1118.00
2456.70,696.00
2457.56,1107.00
2458.43,753.00
2459.29,1142.00
2460.16,734.00
2461.02,1152.00
2461.89,781.00
2462.75,1161.00
2463.61,803.00
2464.48,1123.00
2465.34,766.00
2466.20,1255.00
2467.06,759.00
2467.93,1166.00
2468.79,791.00
2469.65,1149.00
2470.51,860.00
2471.37,1171.00
2472.23,851.00
2473.10,1046.00
2473.96,875.00
2474.82,1181.00
2475.68,815.00
2476.54,1113.00
2477.40,881.00
2478.26,1204.00
2479.11,697.00
2479.97,1097.00
2480.83,771.00
2481.69,1031.00
2482.55,733.00
2483.41,1184.00
2484.26,924.00
2485.12,1174.00
2485.98,803.00
2486.84,1186.00
2487.69,778.00
2488.55,1200.00
2489.41,851.00
2490.26,1157.00
2491.12,783.00
2491.97,1306.00
2492.83,652.00
2493.68,1163.00
2494.54,756.00
2495.39,1138.00
2496.25,707.00
2497.10,1180.00
2497.96,888.00
2498.81,1171.00
2499.67,860.00
2500.52,1077.00
2501.37,745.00
2502.22,1155.00
2503.08,769.00
2503.93,1113.00
2504.78,796.00
2505.63,1110.00
2506.49,765.00
2507.34,1130.00
2508.19,793.00
2509.04,1167.00
2509.89,910.00
2510.74,1120.00
2511.59,856.00
2512.44,1227.00
2513.29,842.00
2514.14,1159.00
2514.99,830.00
2515.84,1092.00
2516.69,740.00
2517.54,1070.00
2518.39,818.00
2519.24,1272.00
2520.08,878.00
2520.93,1108.00
2521.78,775.00
2522.63,1148.00
2523.48,821.00
2524.32,1177.00
2525.17,760.00
2526.02,1105.00
2526.86,805.00
2527.71,1217.00
2528.56,710.00
2529.40,1158.00
2530.25,707.00
2531.09,1059.00
2531.94,781.00
2532.78,1086.00
2533.63,679.00
2534.47,1142.00
2535.32,738.00
2536.16,1120.00
2537.00,821.00
2537.85,1132.00
2538.69,772.00
2539.53,1155.00
2540.38,841.00
2541.22,1232.00
2542.06,779.00
2542.90,1100.00
2543.75,785.00
2544.59,1056.00
2545.43,777.00
2546.27,1161.00
2547.11,747.00
2547.95,1041.00
2548.79,746.00
2549.64,1167.00
2550.48,705.00
2551.32,1218.00
2552.16,712.00
2553.00,1279.00
2553.84,790.00
2554.67,1026.00
2555.51,898.00
2556.35,1198.00
2557.19,811.00
2558.03,1040.00
2558.87,700.00
2559.71,1114.00
2560.54,697.00
2561.38,1139.00
2562.22,743.00
2563.06,1102.00
2563.89,693.00
2564.73,1190.00
2565.57,717.00
2566.40,1135.00
2567.24,724.00
2568.07,1068.00
2568.91,682.00
2569.75,1229.00
2570.58,768.00
2571.42,1135.00
2572.25,861.00
2573.09,1208.00
2573.92,805.00
2574.75,1204.00
2575.59,742.00
2576.42,1154.00
2577.26,799.00
2578.09,1187.00
2578.92,800.00
2579.76,1205.00
2580.59,776.00
2581.42,1112.00
2582.25,765.00
2583.09,1131.00
2583.92,760.00
2584.75,1185.00
2585.58,765.00
2586.41,1262.00
2587.24,867.00
2588.07,1196.00
2588.91,722.00
2589.74,1287.00
2590.57,813.00
2591.40,1092.00
2592.23,733.00
2593.06,1201.00
2593.89,773.00
2594.72,1139.00
2595.54,747.00
2596.37,1347.00
2597.20,727.00
2598.03,1176.00
2598.86,829.00
2599.69,1263.00
2600.52,741.00
2601.34,1199.00
2602.17,860.00
2603.00,1237.00
2603.82,776.00
2604.65,1223.00
2605.48,833.00
2606.30,1192.00
2607.13,741.00
2607.96,1320.00
2608.78,775.00
2609.61,1306.00
2610.43,788.00
2611.26,1239.00
2612.08,794.00
2612.91,1181.00
2613.73,787.00
2614.56,1161.00
2615.38,834.00
2616.21,1301.00
2617.03,796.00
2617.86,1143.00
2618.68,863.00
2619.50,1176.00
2620.33,737.00
2621.15,1111.00
2621.97,858.00
2622.79,1084.00
2623.62,757.00
2624.44,1178.00
2625.26,736.00
2626.08,1199.00
2626.90,797.00
2627.72,1166.00
2628.55,787.00
2629.37,1305.00
2630.19,760.00
2631.01,1128.00
2631.83,776.00
2632.65,1197.00
2633.47,751.00
2634.29,1169.00
2635.11,790.00
2635.93,1220.00
2636.75,863.00
2637.57,1234.00
2638.39,803.00
2639.20,1216.00
2640.02,760.00
2640.84,1188.00
2641.66,817.00
2642.48,1296.00
2643.29,909.00
2644.11,1290.00
2644.93,855.00
2645.75,1212.00
2646.56,848.00
2647.38,1179.00
2648.20,892.00
2649.01,0.00
2649.83,0.00
2650.65,0.00
2651.46,0.00
2652.28,0.00
