ENLIGHTEN Version,1.7.2
Measurement ID,20190716-204315-427833-WP-00340
Serial Number,WP-00340
Label,4mm HDPE
Integration Time,2000
Timestamp,2019-07-16 20:43:15.427833
Note,
Temperature,-99
CCD C0,801.7174072265625
CCD C1,0.14122000336647034
CCD C2,-5.609700110653648e-06
CCD C3,-8.541699791919655e-09
CCD Offset,0
CCD Gain,1.9
Laser Wavelength,785.0
Laser Enable,True
Laser Power,100.0
Laser Temperature,-99
Pixel Count,1024

Wavenumber,Processed
265.63,314.00
267.83,379.00
270.02,500.00
272.22,593.00
274.41,748.00
276.60,963.00
278.80,1176.00
280.99,1470.00
283.18,1859.00
285.37,2268.00
287.55,2783.00
289.74,3241.00
291.93,3712.00
294.11,4164.00
296.30,4571.00
298.48,4884.00
300.66,5222.00
302.84,5366.00
305.02,5479.00
307.20,5586.00
309.38,5614.00
311.56,5707.00
313.74,5704.00
315.91,5614.00
318.09,5703.00
320.26,5709.00
322.43,5643.00
324.61,5785.00
326.78,5722.00
328.95,5790.00
331.12,5859.00
333.28,5850.00
335.45,5849.00
337.62,5909.00
339.78,5849.00
341.95,5897.00
344.11,5896.00
346.27,5987.00
348.43,5964.00
350.59,5937.00
352.75,5952.00
354.91,5896.00
357.07,5912.00
359.23,5928.00
361.38,5917.00
363.54,5994.00
365.69,5945.00
367.84,5960.00
370.00,6002.00
372.15,6019.00
374.30,6066.00
376.45,6061.00
378.59,6116.00
380.74,6002.00
382.89,6129.00
385.03,6107.00
387.18,6133.00
389.32,6135.00
391.46,6171.00
393.60,6202.00
395.74,6217.00
397.88,6243.00
400.02,6224.00
402.16,6268.00
404.29,6249.00
406.43,6257.00
408.57,6246.00
410.70,6179.00
412.83,6266.00
414.96,6204.00
417.09,6263.00
419.22,6204.00
421.35,6190.00
423.48,6209.00
425.61,6287.00
427.73,6171.00
429.86,6147.00
431.98,6106.00
434.11,6162.00
436.23,6257.00
438.35,6164.00
440.47,6128.00
442.59,6199.00
444.71,6168.00
446.82,6112.00
448.94,6133.00
451.05,6223.00
453.17,6185.00
455.28,6229.00
457.39,6140.00
459.51,6164.00
461.62,6137.00
463.73,6169.00
465.83,6158.00
467.94,6061.00
470.05,6180.00
472.15,6155.00
474.26,6215.00
476.36,6164.00
478.47,6143.00
480.57,6206.00
482.67,6234.00
484.77,6219.00
486.87,6163.00
488.97,6224.00
491.06,6203.00
493.16,6188.00
495.25,6128.00
497.35,6083.00
499.44,6003.00
501.53,5916.00
503.62,5945.00
505.71,5807.00
507.80,5829.00
509.89,5787.00
511.98,5673.00
514.07,5749.00
516.15,5691.00
518.24,5689.00
520.32,5688.00
522.40,5604.00
524.48,5682.00
526.56,5605.00
528.64,5529.00
530.72,5583.00
532.80,5625.00
534.88,5595.00
536.95,5573.00
539.03,5540.00
541.10,5443.00
543.17,5509.00
545.24,5597.00
547.32,5549.00
549.39,5547.00
551.45,5530.00
553.52,5523.00
555.59,5570.00
557.66,5492.00
559.72,5542.00
561.78,5521.00
563.85,5448.00
565.91,5493.00
567.97,5451.00
570.03,5566.00
572.09,5492.00
574.15,5482.00
576.21,5421.00
578.26,5409.00
580.32,5416.00
582.37,5494.00
584.42,5417.00
586.48,5464.00
588.53,5489.00
590.58,5473.00
592.63,5470.00
594.68,5408.00
596.72,5505.00
598.77,5504.00
600.82,5414.00
602.86,5532.00
604.90,5530.00
606.95,5419.00
608.99,5400.00
611.03,5386.00
613.07,5471.00
615.11,5410.00
617.15,5386.00
619.18,5350.00
621.22,5357.00
623.25,5366.00
625.29,5347.00
627.32,5395.00
629.35,5355.00
631.38,5289.00
633.41,5296.00
635.44,5294.00
637.47,5293.00
639.50,5283.00
641.52,5258.00
643.55,5311.00
645.57,5249.00
647.60,5269.00
649.62,5325.00
651.64,5277.00
653.66,5344.00
655.68,5295.00
657.70,5226.00
659.71,5292.00
661.73,5187.00
663.75,5285.00
665.76,5222.00
667.77,5293.00
669.79,5300.00
671.80,5283.00
673.81,5300.00
675.82,5252.00
677.83,5263.00
679.83,5214.00
681.84,5285.00
683.84,5302.00
685.85,5353.00
687.85,5260.00
689.86,5224.00
691.86,5325.00
693.86,5273.00
695.86,5395.00
697.86,5287.00
699.85,5273.00
701.85,5325.00
703.85,5411.00
705.84,5401.00
707.84,5372.00
709.83,5391.00
711.82,5438.00
713.81,5515.00
715.80,5576.00
717.79,5598.00
719.78,5597.00
721.76,5585.00
723.75,5610.00
725.74,5610.00
727.72,5558.00
729.70,5556.00
731.68,5603.00
733.67,5521.00
735.65,5527.00
737.62,5530.00
739.60,5467.00
741.58,5487.00
743.56,5492.00
745.53,5488.00
747.51,5484.00
749.48,5492.00
751.45,5545.00
753.42,5551.00
755.39,5442.00
757.36,5486.00
759.33,5430.00
761.30,5519.00
763.26,5548.00
765.23,5564.00
767.19,5534.00
769.16,5623.00
771.12,5530.00
773.08,5587.00
775.04,5680.00
777.00,5667.00
778.96,5652.00
780.92,5619.00
782.87,5731.00
784.83,5751.00
786.78,5781.00
788.74,5736.00
790.69,5724.00
792.64,5835.00
794.59,5749.00
796.54,5751.00
798.49,5743.00
800.44,5795.00
802.38,5798.00
804.33,5800.00
806.27,5908.00
808.22,5837.00
810.16,5869.00
812.10,5806.00
814.04,5725.00
815.98,5798.00
817.92,5802.00
819.86,5722.00
821.80,5744.00
823.73,5827.00
825.67,5810.00
827.60,5751.00
829.53,5844.00
831.47,5875.00
833.40,5904.00
835.33,5933.00
837.26,5834.00
839.18,5935.00
841.11,5847.00
843.04,5964.00
844.96,5869.00
846.89,5975.00
848.81,5969.00
850.73,5932.00
852.65,5977.00
854.57,5901.00
856.49,6006.00
858.41,6015.00
860.33,5867.00
862.24,6068.00
864.16,6004.00
866.07,5998.00
867.99,5972.00
869.90,5960.00
871.81,5953.00
873.72,6060.00
875.63,6017.00
877.54,6014.00
879.44,5920.00
881.35,5956.00
883.26,5972.00
885.16,5979.00
887.06,5887.00
888.97,5971.00
890.87,5977.00
892.77,5969.00
894.67,5884.00
896.57,5773.00
898.46,5776.00
900.36,5840.00
902.26,5711.00
904.15,5793.00
906.04,5739.00
907.94,5733.00
909.83,5726.00
911.72,5578.00
913.61,5737.00
915.50,5665.00
917.38,5600.00
919.27,5648.00
921.16,5528.00
923.04,5663.00
924.92,5544.00
926.81,5551.00
928.69,5618.00
930.57,5593.00
932.45,5540.00
934.33,5462.00
936.20,5551.00
938.08,5414.00
939.96,5403.00
941.83,5437.00
943.71,5370.00
945.58,5373.00
947.45,5384.00
949.32,5378.00
951.19,5300.00
953.06,5256.00
954.93,5256.00
956.79,5305.00
958.66,5325.00
960.52,5275.00
962.39,5268.00
964.25,5176.00
966.11,5277.00
967.97,5328.00
969.83,5214.00
971.69,5265.00
973.55,5201.00
975.41,5306.00
977.26,5225.00
979.12,5258.00
980.97,5269.00
982.82,5330.00
984.68,5342.00
986.53,5304.00
988.38,5310.00
990.23,5212.00
992.07,5315.00
993.92,5340.00
995.77,5376.00
997.61,5372.00
999.46,5393.00
1001.30,5386.00
1003.14,5433.00
1004.98,5445.00
1006.82,5395.00
1008.66,5447.00
1010.50,5443.00
1012.34,5483.00
1014.17,5500.00
1016.01,5562.00
1017.84,5524.00
1019.68,5599.00
1021.51,5583.00
1023.34,5563.00
1025.17,5605.00
1027.00,5622.00
1028.83,5715.00
1030.65,5724.00
1032.48,5771.00
1034.31,5777.00
1036.13,5806.00
1037.95,5873.00
1039.77,6018.00
1041.60,6163.00
1043.42,6166.00
1045.24,6428.00
1047.05,6716.00
1048.87,7185.00
1050.69,7965.00
1052.50,9441.00
1054.32,11656.00
1056.13,14647.00
1057.94,17420.00
1059.75,19582.00
1061.56,20535.00
1063.37,19856.00
1065.18,17768.00
1066.99,14762.00
1068.80,12055.00
1070.60,10059.00
1072.41,9040.00
1074.21,8477.00
1076.01,8197.00
1077.81,8028.00
1079.61,8106.00
1081.41,8041.00
1083.21,7971.00
1085.01,7813.00
1086.81,7600.00
1088.60,7463.00
1090.40,7375.00
1092.19,7204.00
1093.98,7001.00
1095.77,6780.00
1097.56,6746.00
1099.35,6586.00
1101.14,6535.00
1102.93,6434.00
1104.72,6464.00
1106.50,6603.00
1108.29,6636.00
1110.07,6753.00
1111.85,6870.00
1113.63,7105.00
1115.41,7606.00
1117.19,8361.00
1118.97,9448.00
1120.75,11426.00
1122.53,14079.00
1124.30,17167.00
1126.08,19752.00
1127.85,20913.00
1129.62,20671.00
1131.39,18877.00
1133.17,15704.00
1134.93,12774.00
1136.70,10075.00
1138.47,8355.00
1140.24,7351.00
1142.00,6726.00
1143.77,6366.00
1145.53,6100.00
1147.29,5979.00
1149.06,5848.00
1150.82,5810.00
1152.58,5751.00
1154.34,5774.00
1156.09,5711.00
1157.85,5771.00
1159.61,5895.00
1161.36,6341.00
1163.11,6725.00
1164.87,7237.00
1166.62,7541.00
1168.37,7800.00
1170.12,7663.00
1171.87,7362.00
1173.62,6908.00
1175.36,6340.00
1177.11,5909.00
1178.85,5599.00
1180.60,5464.00
1182.34,5328.00
1184.08,5233.00
1185.82,5176.00
1187.56,5258.00
1189.30,5165.00
1191.04,5169.00
1192.78,5230.00
1194.51,5112.00
1196.25,5153.00
1197.98,5057.00
1199.71,5000.00
1201.45,5034.00
1203.18,4990.00
1204.91,5043.00
1206.64,5034.00
1208.36,4948.00
1210.09,4965.00
1211.82,4965.00
1213.54,5047.00
1215.27,5029.00
1216.99,4929.00
1218.71,4993.00
1220.43,4971.00
1222.15,4979.00
1223.87,4958.00
1225.59,4950.00
1227.31,4963.00
1229.02,4915.00
1230.74,4952.00
1232.45,4979.00
1234.16,4942.00
1235.88,4976.00
1237.59,5011.00
1239.30,5049.00
1241.01,4991.00
1242.71,4973.00
1244.42,5081.00
1246.13,5089.00
1247.83,5148.00
1249.54,5079.00
1251.24,5119.00
1252.94,5185.00
1254.64,5291.00
1256.34,5305.00
1258.04,5454.00
1259.74,5487.00
1261.44,5684.00
1263.13,5694.00
1264.83,5840.00
1266.52,6031.00
1268.22,6013.00
1269.91,6137.00
1271.60,6192.00
1273.29,6135.00
1274.98,6205.00
1276.67,6346.00
1278.35,6506.00
1280.04,6702.00
1281.73,7143.00
1283.41,7876.00
1285.09,9367.00
1286.78,12038.00
1288.46,16092.00
1290.14,20776.00
1291.82,25126.00
1293.49,26476.00
1295.17,27824.00
1296.85,25833.00
1298.52,21932.00
1300.20,17571.00
1301.87,13982.00
1303.54,11395.00
1305.21,9953.00
1306.88,8993.00
1308.55,8365.00
1310.22,7806.00
1311.89,7480.00
1313.56,7096.00
1315.22,6845.00
1316.89,6535.00
1318.55,6199.00
1320.21,6115.00
1321.87,5953.00
1323.53,5694.00
1325.19,5574.00
1326.85,5486.00
1328.51,5306.00
1330.16,5146.00
1331.82,5123.00
1333.47,4965.00
1335.13,4933.00
1336.78,4832.00
1338.43,4824.00
1340.08,4833.00
1341.73,4774.00
1343.38,4838.00
1345.03,4805.00
1346.67,4826.00
1348.32,4761.00
1349.96,4702.00
1351.61,4757.00
1353.25,4807.00
1354.89,4738.00
1356.53,4902.00
1358.17,4952.00
1359.81,5079.00
1361.45,5171.00
1363.08,5281.00
1364.72,5551.00
1366.35,5779.00
1367.99,5865.00
1369.62,5840.00
1371.25,5648.00
1372.88,5507.00
1374.51,5248.00
1376.14,5045.00
1377.77,4889.00
1379.39,4671.00
1381.02,4564.00
1382.64,4514.00
1384.27,4456.00
1385.89,4490.00
1387.51,4438.00
1389.13,4466.00
1390.75,4516.00
1392.37,4526.00
1393.99,4579.00
1395.60,4524.00
1397.22,4604.00
1398.83,4682.00
1400.45,4760.00
1402.06,4880.00
1403.67,5123.00
1405.28,5484.00
1406.89,6095.00
1408.50,7069.00
1410.11,8513.00
1411.71,9975.00
1413.32,11418.00
1414.92,12367.00
1416.53,12724.00
1418.13,12475.00
1419.73,11793.00
1421.33,11030.00
1422.93,10434.00
1424.53,10139.00
1426.13,10404.00
1427.72,11256.00
1429.32,12666.00
1430.91,14342.00
1432.51,16623.00
1434.10,19074.00
1435.69,21601.00
1437.28,23314.00
1438.87,24114.00
1440.46,23987.00
1442.05,22855.00
1443.64,21149.00
1445.22,19349.00
1446.81,17619.00
1448.39,16381.00
1449.97,15627.00
1451.55,15280.00
1453.14,15158.00
1454.72,15296.00
1456.29,15447.00
1457.87,15681.00
1459.45,15868.00
1461.02,15740.00
1462.60,15407.00
1464.17,14907.00
1465.75,13973.00
1467.32,13092.00
1468.89,12011.00
1470.46,10989.00
1472.03,9900.00
1473.59,8939.00
1475.16,8139.00
1476.73,7570.00
1478.29,6960.00
1479.86,6514.00
1481.42,6135.00
1482.98,5785.00
1484.54,5610.00
1486.10,5338.00
1487.66,5211.00
1489.22,5083.00
1490.77,4962.00
1492.33,4889.00
1493.88,4723.00
1495.44,4691.00
1496.99,4583.00
1498.54,4553.00
1500.09,4428.00
1501.64,4417.00
1503.19,4343.00
1504.74,4284.00
1506.29,4309.00
1507.83,4206.00
1509.38,4170.00
1510.92,4228.00
1512.47,4206.00
1514.01,4127.00
1515.55,4142.00
1517.09,4073.00
1518.63,4039.00
1520.16,4155.00
1521.70,4046.00
1523.24,4079.00
1524.77,3982.00
1526.31,3937.00
1527.84,3957.00
1529.37,3981.00
1530.90,3940.00
1532.43,3953.00
1533.96,3993.00
1535.49,3942.00
1537.02,3911.00
1538.54,3932.00
1540.07,3929.00
1541.59,3980.00
1543.11,3904.00
1544.64,3858.00
1546.16,3870.00
1547.68,3871.00
1549.20,3886.00
1550.71,3938.00
1552.23,3791.00
1553.75,3804.00
1555.26,3888.00
1556.78,3822.00
1558.29,3837.00
1559.80,3801.00
1561.31,3729.00
1562.82,3717.00
1564.33,3643.00
1565.84,3683.00
1567.35,3683.00
1568.85,3738.00
1570.36,3712.00
1571.86,3652.00
1573.36,3693.00
1574.87,3702.00
1576.37,3609.00
1577.87,3652.00
1579.37,3620.00
1580.87,3538.00
1582.36,3487.00
1583.86,3546.00
1585.35,3537.00
1586.85,3567.00
1588.34,3520.00
1589.83,3521.00
1591.32,3506.00
1592.81,3508.00
1594.30,3472.00
1595.79,3473.00
1597.28,3480.00
1598.76,3413.00
1600.25,3428.00
1601.73,3478.00
1603.22,3433.00
1604.70,3405.00
1606.18,3340.00
1607.66,3392.00
1609.14,3376.00
1610.62,3388.00
1612.10,3358.00
1613.57,3352.00
1615.05,3354.00
1616.52,3344.00
1617.99,3331.00
1619.47,3380.00
1620.94,3275.00
1622.41,3291.00
1623.88,3255.00
1625.35,3291.00
1626.81,3276.00
1628.28,3331.00
1629.74,3245.00
1631.21,3226.00
1632.67,3224.00
1634.13,3251.00
1635.60,3246.00
1637.06,3248.00
1638.51,3247.00
1639.97,3264.00
1641.43,3270.00
1642.89,3236.00
1644.34,3272.00
1645.80,3213.00
1647.25,3116.00
1648.70,3124.00
1650.15,3095.00
1651.60,3130.00
1653.05,3084.00
1654.50,3057.00
1655.95,3092.00
1657.40,3021.00
1658.84,3063.00
1660.28,2958.00
1661.73,3040.00
1663.17,2996.00
1664.61,2981.00
1666.05,3006.00
1667.49,3006.00
1668.93,3021.00
1670.37,3013.00
1671.80,2955.00
1673.24,2920.00
1674.67,3027.00
1676.11,2945.00
1677.54,2994.00
1678.97,3002.00
1680.40,2941.00
1681.83,2917.00
1683.26,2928.00
1684.69,2899.00
1686.11,2933.00
1687.54,2918.00
1688.96,2947.00
1690.39,2875.00
1691.81,2886.00
1693.23,2840.00
1694.65,2839.00
1696.07,2848.00
1697.49,2844.00
1698.91,2852.00
1700.32,2818.00
1701.74,2865.00
1703.15,2836.00
1704.57,2812.00
1705.98,2798.00
1707.39,2823.00
1708.80,2794.00
1710.21,2768.00
1711.62,2808.00
1713.03,2809.00
1714.43,2821.00
1715.84,2806.00
1717.24,2819.00
1718.65,2758.00
1720.05,2737.00
1721.45,2755.00
1722.85,2772.00
1724.25,2660.00
1725.65,2684.00
1727.05,2730.00
1728.44,2755.00
1729.84,2726.00
1731.23,2709.00
1732.63,2688.00
1734.02,2688.00
1735.41,2648.00
1736.80,2671.00
1738.19,2642.00
1739.58,2635.00
1740.97,2646.00
1742.35,2606.00
1743.74,2610.00
1745.12,2616.00
1746.51,2598.00
1747.89,2655.00
1749.27,2638.00
1750.65,2602.00
1752.03,2548.00
1753.41,2566.00
1754.79,2671.00
1756.17,2572.00
1757.54,2580.00
1758.92,2538.00
1760.29,2554.00
1761.66,2571.00
1763.03,2624.00
1764.41,2580.00
1765.78,2551.00
1767.14,2528.00
1768.51,2538.00
1769.88,2521.00
1771.24,2475.00
1772.61,2493.00
1773.97,2509.00
1775.34,2515.00
1776.70,2488.00
1778.06,2429.00
1779.42,2490.00
1780.78,2454.00
1782.13,2446.00
1783.49,2446.00
1784.85,2428.00
1786.20,2381.00
1787.56,2388.00
1788.91,2369.00
1790.26,2391.00
1791.61,2332.00
1792.96,2395.00
1794.31,2368.00
1795.66,2315.00
1797.00,2343.00
1798.35,2313.00
1799.69,2290.00
1801.04,2334.00
1802.38,2287.00
1803.72,2333.00
1805.06,2289.00
1806.40,2294.00
1807.74,2271.00
1809.08,2264.00
1810.42,2277.00
1811.75,2220.00
1813.09,2198.00
1814.42,2245.00
1815.76,2229.00
1817.09,2216.00
1818.42,2153.00
1819.75,2223.00
1821.08,2267.00
1822.40,2272.00
1823.73,2203.00
1825.06,2168.00
1826.38,2182.00
1827.71,2125.00
1829.03,2140.00
1830.35,2125.00
1831.67,2108.00
1832.99,2157.00
1834.31,2142.00
1835.63,2043.00
1836.95,2150.00
1838.26,2123.00
1839.58,2129.00
1840.89,2123.00
1842.20,2059.00
1843.52,2070.00
1844.83,2074.00
1846.14,2073.00
1847.45,2024.00
1848.75,2034.00
1850.06,2020.00
1851.37,1997.00
1852.67,1999.00
1853.98,2007.00
1855.28,2001.00
1856.58,2011.00
1857.88,1984.00
1859.18,1967.00
1860.48,1975.00
1861.78,1948.00
1863.08,1925.00
1864.37,1929.00
1865.67,1919.00
1866.96,1977.00
1868.26,1904.00
1869.55,1973.00
1870.84,1900.00
1872.13,1958.00
1873.42,1877.00
1874.71,1895.00
1875.99,1919.00
1877.28,1866.00
1878.56,1905.00
1879.85,1885.00
1881.13,1864.00
1882.41,1876.00
1883.69,1883.00
1884.97,1845.00
1886.25,1837.00
1887.53,1834.00
1888.81,1863.00
1890.09,1817.00
1891.36,1792.00
1892.63,1828.00
1893.91,1794.00
1895.18,1805.00
1896.45,1766.00
1897.72,1775.00
1898.99,1729.00
1900.26,1747.00
1901.53,1712.00
1902.79,1775.00
1904.06,1743.00
1905.32,1699.00
1906.58,1708.00
1907.85,1663.00
1909.11,1674.00
1910.37,1678.00
1911.63,1704.00
1912.89,1701.00
1914.14,1681.00
1915.40,1705.00
1916.65,1682.00
1917.91,1642.00
1919.16,1627.00
1920.41,1660.00
1921.67,1687.00
1922.92,1659.00
1924.17,1635.00
1925.41,1651.00
1926.66,1600.00
1927.91,1675.00
1929.15,1615.00
1930.40,1613.00
1931.64,1600.00
1932.88,1547.00
1934.12,1590.00
1935.36,1607.00
1936.60,1587.00
1937.84,1566.00
1939.08,1579.00
1940.32,1572.00
1941.55,1548.00
1942.79,1539.00
1944.02,1558.00
1945.25,1524.00
1946.48,1518.00
1947.71,1488.00
1948.94,1486.00
1950.17,1454.00
1951.40,1497.00
1952.62,1515.00
1953.85,1472.00
1955.07,1526.00
1956.30,1488.00
1957.52,1478.00
1958.74,1490.00
1959.96,1473.00
1961.18,1465.00
1962.40,1476.00
1963.62,1471.00
1964.83,1440.00
1966.05,1467.00
1967.26,1410.00
1968.48,1456.00
1969.69,1385.00
1970.90,1436.00
1972.11,1425.00
1973.32,1450.00
1974.53,1397.00
1975.74,1406.00
1976.94,1421.00
1978.15,1409.00
1979.35,1425.00
1980.56,1383.00
1981.76,1390.00
1982.96,1415.00
1984.16,1383.00
1985.36,1350.00
1986.56,1374.00
1987.76,1328.00
1988.95,1355.00
1990.15,1335.00
1991.34,1322.00
1992.54,1339.00
1993.73,1347.00
1994.92,1324.00
1996.11,1290.00
1997.30,1334.00
1998.49,1278.00
1999.68,1286.00
