ENLIGHTEN Version,1.7.2
Measurement ID,20190716-204352-340737-WP-00340
Serial Number,WP-00340
Label,Acetone 4mm HDPE
Integration Time,2000
Timestamp,2019-07-16 20:43:52.340737
Note,
Temperature,-99
CCD C0,801.7174072265625
CCD C1,0.14122000336647034
CCD C2,-5.609700110653648e-06
CCD C3,-8.541699791919655e-09
CCD Offset,0
CCD Gain,1.9
Laser Wavelength,785.0
Laser Enable,True
Laser Power,100.0
Laser Temperature,-99
Pixel Count,1024

Wavenumber,Processed
265.63,297.00
267.83,367.00
270.02,458.00
272.22,548.00
274.41,732.00
276.60,889.00
278.80,1139.00
280.99,1466.00
283.18,1867.00
285.37,2230.00
287.55,2709.00
289.74,3154.00
291.93,3689.00
294.11,4124.00
296.30,4518.00
298.48,4796.00
300.66,5104.00
302.84,5351.00
305.02,5365.00
307.20,5498.00
309.38,5528.00
311.56,5595.00
313.74,5557.00
315.91,5610.00
318.09,5602.00
320.26,5640.00
322.43,5572.00
324.61,5638.00
326.78,5653.00
328.95,5702.00
331.12,5751.00
333.28,5834.00
335.45,5745.00
337.62,5785.00
339.78,5853.00
341.95,5836.00
344.11,5838.00
346.27,5922.00
348.43,5880.00
350.59,5948.00
352.75,5903.00
354.91,5850.00
357.07,5846.00
359.23,5842.00
361.38,5892.00
363.54,5964.00
365.69,5948.00
367.84,5930.00
370.00,5933.00
372.15,5977.00
374.30,5937.00
376.45,5964.00
378.59,6004.00
380.74,5951.00
382.89,6074.00
385.03,6076.00
387.18,6103.00
389.32,6090.00
391.46,6104.00
393.60,6179.00
395.74,6141.00
397.88,6120.00
400.02,6192.00
402.16,6146.00
404.29,6125.00
406.43,6162.00
408.57,6173.00
410.70,6236.00
412.83,6178.00
414.96,6189.00
417.09,6120.00
419.22,6080.00
421.35,6131.00
423.48,6188.00
425.61,6101.00
427.73,6118.00
429.86,6071.00
431.98,6093.00
434.11,6063.00
436.23,6120.00
438.35,6111.00
440.47,6027.00
442.59,6163.00
444.71,6080.00
446.82,6150.00
448.94,6140.00
451.05,6158.00
453.17,6067.00
455.28,6054.00
457.39,6068.00
459.51,6084.00
461.62,6053.00
463.73,6143.00
465.83,6131.00
467.94,6120.00
470.05,6047.00
472.15,6155.00
474.26,6124.00
476.36,6150.00
478.47,6118.00
480.57,6229.00
482.67,6215.00
484.77,6183.00
486.87,6103.00
488.97,6196.00
491.06,6209.00
493.16,6120.00
495.25,6067.00
497.35,6032.00
499.44,5948.00
501.53,5962.00
503.62,5894.00
505.71,5836.00
507.80,5855.00
509.89,5722.00
511.98,5688.00
514.07,5675.00
516.15,5638.00
518.24,5646.00
520.32,5633.00
522.40,5587.00
524.48,5610.00
526.56,5578.00
528.64,5572.00
530.72,5587.00
532.80,5612.00
534.88,5569.00
536.95,5537.00
539.03,5523.00
541.10,5547.00
543.17,5433.00
545.24,5529.00
547.32,5433.00
549.39,5478.00
551.45,5420.00
553.52,5460.00
555.59,5475.00
557.66,5429.00
559.72,5416.00
561.78,5439.00
563.85,5414.00
565.91,5418.00
567.97,5397.00
570.03,5421.00
572.09,5407.00
574.15,5401.00
576.21,5393.00
578.26,5359.00
580.32,5376.00
582.37,5439.00
584.42,5362.00
586.48,5390.00
588.53,5472.00
590.58,5399.00
592.63,5401.00
594.68,5391.00
596.72,5429.00
598.77,5458.00
600.82,5452.00
602.86,5422.00
604.90,5414.00
606.95,5336.00
608.99,5326.00
611.03,5371.00
613.07,5254.00
615.11,5300.00
617.15,5306.00
619.18,5270.00
621.22,5308.00
623.25,5247.00
625.29,5210.00
627.32,5273.00
629.35,5199.00
631.38,5272.00
633.41,5241.00
635.44,5205.00
637.47,5169.00
639.50,5226.00
641.52,5195.00
643.55,5252.00
645.57,5205.00
647.60,5197.00
649.62,5216.00
651.64,5226.00
653.66,5136.00
655.68,5266.00
657.70,5163.00
659.71,5175.00
661.73,5161.00
663.75,5182.00
665.76,5176.00
667.77,5184.00
669.79,5198.00
671.80,5182.00
673.81,5192.00
675.82,5138.00
677.83,5214.00
679.83,5206.00
681.84,5226.00
683.84,5186.00
685.85,5188.00
687.85,5204.00
689.86,5249.00
691.86,5252.00
693.86,5222.00
695.86,5286.00
697.86,5232.00
699.85,5246.00
701.85,5317.00
703.85,5251.00
705.84,5338.00
707.84,5289.00
709.83,5336.00
711.82,5404.00
713.81,5359.00
715.80,5508.00
717.79,5530.00
719.78,5572.00
721.76,5507.00
723.75,5567.00
725.74,5541.00
727.72,5460.00
729.70,5461.00
731.68,5519.00
733.67,5439.00
735.65,5382.00
737.62,5425.00
739.60,5473.00
741.58,5466.00
743.56,5452.00
745.53,5425.00
747.51,5419.00
749.48,5428.00
751.45,5403.00
753.42,5466.00
755.39,5439.00
757.36,5436.00
759.33,5384.00
761.30,5369.00
763.26,5432.00
765.23,5515.00
767.19,5492.00
769.16,5561.00
771.12,5639.00
773.08,5713.00
775.04,5720.00
777.00,5781.00
778.96,5921.00
780.92,6036.00
782.87,6137.00
784.83,6253.00
786.78,6278.00
788.74,6274.00
790.69,6194.00
792.64,6078.00
794.59,6012.00
796.54,5892.00
798.49,5813.00
800.44,5820.00
802.38,5793.00
804.33,5767.00
806.27,5823.00
808.22,5783.00
810.16,5791.00
812.10,5730.00
814.04,5679.00
815.98,5695.00
817.92,5715.00
819.86,5682.00
821.80,5740.00
823.73,5745.00
825.67,5745.00
827.60,5726.00
829.53,5758.00
831.47,5785.00
833.40,5799.00
835.33,5812.00
837.26,5769.00
839.18,5885.00
841.11,5828.00
843.04,5874.00
844.96,5893.00
846.89,5808.00
848.81,5905.00
850.73,5899.00
852.65,5891.00
854.57,5860.00
856.49,5928.00
858.41,5954.00
860.33,5927.00
862.24,5918.00
864.16,5929.00
866.07,5934.00
867.99,5886.00
869.90,5986.00
871.81,5951.00
873.72,5939.00
875.63,5987.00
877.54,5823.00
879.44,5967.00
881.35,5903.00
883.26,5903.00
885.16,5915.00
887.06,5868.00
888.97,5905.00
890.87,5818.00
892.77,5924.00
894.67,5880.00
896.57,5859.00
898.46,5772.00
900.36,5792.00
902.26,5681.00
904.15,5732.00
906.04,5684.00
907.94,5619.00
909.83,5703.00
911.72,5599.00
913.61,5572.00
915.50,5614.00
917.38,5547.00
919.27,5538.00
921.16,5564.00
923.04,5578.00
924.92,5519.00
926.81,5467.00
928.69,5470.00
930.57,5532.00
932.45,5414.00
934.33,5418.00
936.20,5399.00
938.08,5414.00
939.96,5359.00
941.83,5401.00
943.71,5334.00
945.58,5260.00
947.45,5243.00
949.32,5224.00
951.19,5244.00
953.06,5223.00
954.93,5195.00
956.79,5275.00
958.66,5236.00
960.52,5302.00
962.39,5231.00
964.25,5159.00
966.11,5214.00
967.97,5266.00
969.83,5241.00
971.69,5206.00
973.55,5166.00
975.41,5224.00
977.26,5210.00
979.12,5247.00
980.97,5166.00
982.82,5218.00
984.68,5254.00
986.53,5241.00
988.38,5219.00
990.23,5224.00
992.07,5275.00
993.92,5249.00
995.77,5283.00
997.61,5319.00
999.46,5252.00
1001.30,5331.00
1003.14,5336.00
1004.98,5369.00
1006.82,5359.00
1008.66,5363.00
1010.50,5469.00
1012.34,5412.00
1014.17,5422.00
1016.01,5475.00
1017.84,5471.00
1019.68,5508.00
1021.51,5585.00
1023.34,5443.00
1025.17,5568.00
1027.00,5677.00
1028.83,5696.00
1030.65,5619.00
1032.48,5690.00
1034.31,5758.00
1036.13,5761.00
1037.95,5821.00
1039.77,5897.00
1041.60,5973.00
1043.42,6188.00
1045.24,6445.00
1047.05,6691.00
1048.87,7242.00
1050.69,7923.00
1052.50,9451.00
1054.32,11764.00
1056.13,14580.00
1057.94,17690.00
1059.75,19908.00
1061.56,20817.00
1063.37,20138.00
1065.18,17981.00
1066.99,15030.00
1068.80,12260.00
1070.60,10236.00
1072.41,9046.00
1074.21,8517.00
1076.01,8193.00
1077.81,8121.00
1079.61,8011.00
1081.41,7992.00
1083.21,7925.00
1085.01,7807.00
1086.81,7636.00
1088.60,7488.00
1090.40,7303.00
1092.19,7241.00
1093.98,7016.00
1095.77,6837.00
1097.56,6702.00
1099.35,6500.00
1101.14,6523.00
1102.93,6432.00
1104.72,6428.00
1106.50,6472.00
1108.29,6529.00
1110.07,6671.00
1111.85,6864.00
1113.63,7126.00
1115.41,7594.00
1117.19,8197.00
1118.97,9515.00
1120.75,11399.00
1122.53,14157.00
1124.30,17163.00
1126.08,19769.00
1127.85,20972.00
1129.62,20974.00
1131.39,19073.00
1133.17,16014.00
1134.93,12846.00
1136.70,10098.00
1138.47,8326.00
1140.24,7305.00
1142.00,6690.00
1143.77,6274.00
1145.53,6022.00
1147.29,5916.00
1149.06,5734.00
1150.82,5751.00
1152.58,5738.00
1154.34,5720.00
1156.09,5794.00
1157.85,5800.00
1159.61,5830.00
1161.36,6234.00
1163.11,6734.00
1164.87,7203.00
1166.62,7585.00
1168.37,7775.00
1170.12,7686.00
1171.87,7356.00
1173.62,6803.00
1175.36,6314.00
1177.11,5827.00
1178.85,5618.00
1180.60,5393.00
1182.34,5237.00
1184.08,5173.00
1185.82,5163.00
1187.56,5163.00
1189.30,5096.00
1191.04,5094.00
1192.78,5097.00
1194.51,5038.00
1196.25,5098.00
1197.98,4971.00
1199.71,5024.00
1201.45,5024.00
1203.18,4982.00
1204.91,5094.00
1206.64,5043.00
1208.36,4987.00
1210.09,4984.00
1211.82,4973.00
1213.54,4967.00
1215.27,5012.00
1216.99,4973.00
1218.71,5070.00
1220.43,5066.00
1222.15,4923.00
1223.87,4950.00
1225.59,5023.00
1227.31,4990.00
1229.02,5014.00
1230.74,5079.00
1232.45,5079.00
1234.16,5056.00
1235.88,5025.00
1237.59,4994.00
1239.30,5028.00
1241.01,4953.00
1242.71,5009.00
1244.42,5041.00
1246.13,5076.00
1247.83,5003.00
1249.54,5087.00
1251.24,5077.00
1252.94,5258.00
1254.64,5257.00
1256.34,5286.00
1258.04,5485.00
1259.74,5547.00
1261.44,5638.00
1263.13,5753.00
1264.83,5865.00
1266.52,5997.00
1268.22,6051.00
1269.91,6181.00
1271.60,6162.00
1273.29,6153.00
1274.98,6329.00
1276.67,6401.00
1278.35,6527.00
1280.04,6704.00
1281.73,7247.00
1283.41,7924.00
1285.09,9462.00
1286.78,12034.00
1288.46,16054.00
1290.14,21065.00
1291.82,25483.00
1293.49,26883.00
1295.17,28281.00
1296.85,26159.00
1298.52,22346.00
1300.20,17863.00
1301.87,14131.00
1303.54,11569.00
1305.21,10004.00
1306.88,9018.00
1308.55,8368.00
1310.22,7901.00
1311.89,7593.00
1313.56,7210.00
1315.22,6829.00
1316.89,6642.00
1318.55,6256.00
1320.21,6145.00
1321.87,5919.00
1323.53,5755.00
1325.19,5547.00
1326.85,5477.00
1328.51,5270.00
1330.16,5260.00
1331.82,5137.00
1333.47,5026.00
1335.13,4939.00
1336.78,4960.00
1338.43,4868.00
1340.08,4866.00
1341.73,4813.00
1343.38,4872.00
1345.03,4824.00
1346.67,4877.00
1348.32,4816.00
1349.96,4763.00
1351.61,4854.00
1353.25,4821.00
1354.89,4792.00
1356.53,4917.00
1358.17,5018.00
1359.81,5195.00
1361.45,5308.00
1363.08,5427.00
1364.72,5629.00
1366.35,5880.00
1367.99,5939.00
1369.62,5886.00
1371.25,5787.00
1372.88,5551.00
1374.51,5406.00
1376.14,5116.00
1377.77,4982.00
1379.39,4762.00
1381.02,4718.00
1382.64,4628.00
1384.27,4555.00
1385.89,4651.00
1387.51,4588.00
1389.13,4529.00
1390.75,4550.00
1392.37,4570.00
1393.99,4592.00
1395.60,4560.00
1397.22,4655.00
1398.83,4718.00
1400.45,4876.00
1402.06,4982.00
1403.67,5248.00
1405.28,5646.00
1406.89,6213.00
1408.50,7339.00
1410.11,8684.00
1411.71,10285.00
1413.32,11561.00
1414.92,12715.00
1416.53,12998.00
1418.13,12850.00
1419.73,12211.00
1421.33,11348.00
1422.93,10577.00
1424.53,10353.00
1426.13,10638.00
1427.72,11566.00
1429.32,12866.00
1430.91,14716.00
1432.51,17028.00
1434.10,19535.00
1435.69,21951.00
1437.28,23738.00
1438.87,24637.00
1440.46,24522.00
1442.05,23470.00
1443.64,21668.00
1445.22,19760.00
1446.81,18209.00
1448.39,16819.00
1449.97,15924.00
1451.55,15510.00
1453.14,15516.00
1454.72,15618.00
1456.29,15742.00
1457.87,15930.00
1459.45,16130.00
1461.02,16018.00
1462.60,15757.00
1464.17,15240.00
1465.75,14296.00
1467.32,13263.00
1468.89,12314.00
1470.46,11174.00
1472.03,10234.00
1473.59,9198.00
1475.16,8350.00
1476.73,7680.00
1478.29,7019.00
1479.86,6597.00
1481.42,6246.00
1482.98,5992.00
1484.54,5660.00
1486.10,5463.00
1487.66,5307.00
1489.22,5150.00
1490.77,5036.00
1492.33,4943.00
1493.88,4860.00
1495.44,4748.00
1496.99,4646.00
1498.54,4640.00
1500.09,4525.00
1501.64,4483.00
1503.19,4362.00
1504.74,4368.00
1506.29,4352.00
1507.83,4286.00
1509.38,4235.00
1510.92,4297.00
1512.47,4194.00
1514.01,4130.00
1515.55,4126.00
1517.09,4060.00
1518.63,4119.00
1520.16,4184.00
1521.70,4126.00
1523.24,4124.00
1524.77,4090.00
1526.31,4000.00
1527.84,4031.00
1529.37,4050.00
1530.90,4065.00
1532.43,4024.00
1533.96,4009.00
1535.49,4007.00
1537.02,4025.00
1538.54,4023.00
1540.07,4041.00
1541.59,3972.00
1543.11,3938.00
1544.64,3917.00
1546.16,3970.00
1547.68,3941.00
1549.20,3936.00
1550.71,3898.00
1552.23,3875.00
1553.75,3909.00
1555.26,3894.00
1556.78,3861.00
1558.29,3827.00
1559.80,3886.00
1561.31,3841.00
1562.82,3784.00
1564.33,3785.00
1565.84,3748.00
1567.35,3789.00
1568.85,3784.00
1570.36,3774.00
1571.86,3698.00
1573.36,3685.00
1574.87,3719.00
1576.37,3712.00
1577.87,3658.00
1579.37,3675.00
1580.87,3599.00
1582.36,3647.00
1583.86,3645.00
1585.35,3607.00
1586.85,3633.00
1588.34,3637.00
1589.83,3633.00
1591.32,3559.00
1592.81,3548.00
1594.30,3539.00
1595.79,3553.00
1597.28,3491.00
1598.76,3453.00
1600.25,3509.00
1601.73,3493.00
1603.22,3393.00
1604.70,3497.00
1606.18,3447.00
1607.66,3419.00
1609.14,3498.00
1610.62,3440.00
1612.10,3394.00
1613.57,3424.00
1615.05,3386.00
1616.52,3373.00
1617.99,3356.00
1619.47,3346.00
1620.94,3351.00
1622.41,3348.00
1623.88,3369.00
1625.35,3325.00
1626.81,3369.00
1628.28,3331.00
1629.74,3369.00
1631.21,3310.00
1632.67,3289.00
1634.13,3285.00
1635.60,3288.00
1637.06,3295.00
1638.51,3373.00
1639.97,3310.00
1641.43,3320.00
1642.89,3354.00
1644.34,3360.00
1645.80,3255.00
1647.25,3203.00
1648.70,3234.00
1650.15,3159.00
1651.60,3187.00
1653.05,3194.00
1654.50,3116.00
1655.95,3145.00
1657.40,3073.00
1658.84,3074.00
1660.28,3076.00
1661.73,3084.00
1663.17,3068.00
1664.61,3090.00
1666.05,3063.00
1667.49,3101.00
1668.93,3025.00
1670.37,3101.00
1671.80,3040.00
1673.24,3011.00
1674.67,3038.00
1676.11,3025.00
1677.54,2966.00
1678.97,2951.00
1680.40,3015.00
1681.83,2926.00
1683.26,2973.00
1684.69,2966.00
1686.11,2933.00
1687.54,2935.00
1688.96,2987.00
1690.39,2941.00
1691.81,2878.00
1693.23,2924.00
1694.65,2865.00
1696.07,2924.00
1697.49,2932.00
1698.91,2964.00
1700.32,2936.00
1701.74,2952.00
1703.15,2972.00
1704.57,2985.00
1705.98,2988.00
1707.39,2977.00
1708.80,2998.00
1710.21,2972.00
1711.62,2959.00
1713.03,2943.00
1714.43,2924.00
1715.84,2943.00
1717.24,2928.00
1718.65,2863.00
1720.05,2920.00
1721.45,2823.00
1722.85,2812.00
1724.25,2823.00
1725.65,2808.00
1727.05,2800.00
1728.44,2761.00
1729.84,2776.00
1731.23,2770.00
1732.63,2753.00
1734.02,2770.00
1735.41,2735.00
1736.80,2698.00
1738.19,2684.00
1739.58,2696.00
1740.97,2720.00
1742.35,2667.00
1743.74,2690.00
1745.12,2660.00
1746.51,2610.00
1747.89,2722.00
1749.27,2638.00
1750.65,2642.00
1752.03,2599.00
1753.41,2659.00
1754.79,2633.00
1756.17,2622.00
1757.54,2631.00
1758.92,2673.00
1760.29,2564.00
1761.66,2607.00
1763.03,2591.00
1764.41,2526.00
1765.78,2536.00
1767.14,2631.00
1768.51,2565.00
1769.88,2551.00
1771.24,2502.00
1772.61,2523.00
1773.97,2495.00
1775.34,2496.00
1776.70,2522.00
1778.06,2509.00
1779.42,2517.00
1780.78,2424.00
1782.13,2492.00
1783.49,2479.00
1784.85,2472.00
1786.20,2416.00
1787.56,2420.00
1788.91,2475.00
1790.26,2423.00
1791.61,2380.00
1792.96,2383.00
1794.31,2349.00
1795.66,2362.00
1797.00,2355.00
1798.35,2317.00
1799.69,2304.00
1801.04,2334.00
1802.38,2294.00
1803.72,2312.00
1805.06,2334.00
1806.40,2330.00
1807.74,2277.00
1809.08,2321.00
1810.42,2292.00
1811.75,2291.00
1813.09,2266.00
1814.42,2289.00
1815.76,2327.00
1817.09,2272.00
1818.42,2241.00
1819.75,2246.00
1821.08,2265.00
1822.40,2247.00
1823.73,2167.00
1825.06,2143.00
1826.38,2187.00
1827.71,2148.00
1829.03,2178.00
1830.35,2148.00
1831.67,2135.00
1832.99,2138.00
1834.31,2136.00
1835.63,2117.00
1836.95,2200.00
1838.26,2096.00
1839.58,2134.00
1840.89,2142.00
1842.20,2059.00
1843.52,2056.00
1844.83,2068.00
1846.14,2087.00
1847.45,2100.00
1848.75,2053.00
1850.06,2016.00
1851.37,2035.00
1852.67,2024.00
1853.98,2020.00
1855.28,2001.00
1856.58,1992.00
1857.88,2060.00
1859.18,1992.00
1860.48,1980.00
1861.78,1948.00
1863.08,2005.00
1864.37,2010.00
1865.67,1944.00
1866.96,1990.00
1868.26,1885.00
1869.55,1916.00
1870.84,1912.00
1872.13,1937.00
1873.42,1893.00
1874.71,1860.00
1875.99,1910.00
1877.28,1879.00
1878.56,1886.00
1879.85,1883.00
1881.13,1873.00
1882.41,1815.00
1883.69,1855.00
1884.97,1845.00
1886.25,1849.00
1887.53,1815.00
1888.81,1825.00
1890.09,1768.00
1891.36,1788.00
1892.63,1813.00
1893.91,1825.00
1895.18,1754.00
1896.45,1726.00
1897.72,1775.00
1898.99,1779.00
1900.26,1735.00
1901.53,1714.00
1902.79,1706.00
1904.06,1684.00
1905.32,1722.00
1906.58,1672.00
1907.85,1649.00
1909.11,1725.00
1910.37,1708.00
1911.63,1704.00
1912.89,1722.00
1914.14,1691.00
1915.40,1705.00
1916.65,1661.00
1917.91,1644.00
1919.16,1632.00
1920.41,1699.00
1921.67,1605.00
1922.92,1678.00
1924.17,1625.00
1925.41,1643.00
1926.66,1621.00
1927.91,1606.00
1929.15,1611.00
1930.40,1632.00
1931.64,1589.00
1932.88,1600.00
1934.12,1566.00
1935.36,1607.00
1936.60,1558.00
1937.84,1566.00
1939.08,1565.00
1940.32,1591.00
1941.55,1588.00
1942.79,1529.00
1944.02,1562.00
1945.25,1505.00
1946.48,1522.00
1947.71,1463.00
1948.94,1528.00
1950.17,1509.00
1951.40,1482.00
1952.62,1537.00
1953.85,1436.00
1955.07,1457.00
1956.30,1500.00
1957.52,1480.00
1958.74,1488.00
1959.96,1469.00
1961.18,1448.00
1962.40,1499.00
1963.62,1412.00
1964.83,1482.00
1966.05,1465.00
1967.26,1526.00
1968.48,1437.00
1969.69,1383.00
1970.90,1427.00
1972.11,1413.00
1973.32,1425.00
1974.53,1387.00
1975.74,1410.00
1976.94,1406.00
1978.15,1381.00
1979.35,1440.00
1980.56,1341.00
1981.76,1392.00
1982.96,1381.00
1984.16,1383.00
1985.36,1333.00
1986.56,1413.00
1987.76,1343.00
1988.95,1374.00
1990.15,1328.00
1991.34,1351.00
1992.54,1389.00
1993.73,1373.00
1994.92,1332.00
1996.11,1347.00
1997.30,1342.00
1998.49,1327.00
1999.68,1297.00
