ENLIGHTEN Version,1.7.2
Measurement ID,20190716-203850-732698-WP-00340
Serial Number,WP-00340
Label,Cyclohexane 2mm HDPE
Integration Time,2000
Timestamp,2019-07-16 20:38:50.732698
Note,
Temperature,-99
CCD C0,801.7174072265625
CCD C1,0.14122000336647034
CCD C2,-5.609700110653648e-06
CCD C3,-8.541699791919655e-09
CCD Offset,0
CCD Gain,1.9
Laser Wavelength,785.0
Laser Enable,True
Laser Power,100.0
Laser Temperature,-99
Pixel Count,1024

Wavenumber,Processed
265.63,216.00
267.83,280.00
270.02,272.00
272.22,449.00
274.41,504.00
276.60,700.00
278.80,877.00
280.99,1068.00
283.18,1339.00
285.37,1691.00
287.55,1988.00
289.74,2370.00
291.93,2663.00
294.11,2968.00
296.30,3303.00
298.48,3580.00
300.66,3759.00
302.84,3911.00
305.02,4018.00
307.20,4065.00
309.38,4067.00
311.56,4092.00
313.74,4130.00
315.91,4157.00
318.09,4149.00
320.26,4125.00
322.43,4102.00
324.61,4145.00
326.78,4210.00
328.95,4218.00
331.12,4225.00
333.28,4254.00
335.45,4353.00
337.62,4292.00
339.78,4348.00
341.95,4334.00
344.11,4309.00
346.27,4358.00
348.43,4476.00
350.59,4303.00
352.75,4373.00
354.91,4340.00
357.07,4360.00
359.23,4381.00
361.38,4347.00
363.54,4423.00
365.69,4341.00
367.84,4455.00
370.00,4450.00
372.15,4543.00
374.30,4594.00
376.45,4665.00
378.59,4710.00
380.74,4792.00
382.89,4775.00
385.03,4672.00
387.18,4718.00
389.32,4712.00
391.46,4704.00
393.60,4625.00
395.74,4640.00
397.88,4680.00
400.02,4640.00
402.16,4625.00
404.29,4632.00
406.43,4644.00
408.57,4692.00
410.70,4756.00
412.83,4686.00
414.96,4801.00
417.09,4817.00
419.22,4920.00
421.35,4961.00
423.48,4982.00
425.61,5028.00
427.73,4921.00
429.86,4858.00
431.98,4754.00
434.11,4703.00
436.23,4636.00
438.35,4676.00
440.47,4672.00
442.59,4674.00
444.71,4624.00
446.82,4620.00
448.94,4606.00
451.05,4634.00
453.17,4681.00
455.28,4609.00
457.39,4587.00
459.51,4604.00
461.62,4543.00
463.73,4585.00
465.83,4564.00
467.94,4564.00
470.05,4528.00
472.15,4550.00
474.26,4585.00
476.36,4528.00
478.47,4552.00
480.57,4630.00
482.67,4613.00
484.77,4584.00
486.87,4630.00
488.97,4611.00
491.06,4557.00
493.16,4581.00
495.25,4516.00
497.35,4373.00
499.44,4381.00
501.53,4393.00
503.62,4244.00
505.71,4265.00
507.80,4084.00
509.89,4159.00
511.98,4163.00
514.07,4050.00
516.15,4086.00
518.24,3974.00
520.32,4018.00
522.40,3993.00
524.48,3936.00
526.56,4008.00
528.64,3873.00
530.72,3931.00
532.80,3896.00
534.88,3955.00
536.95,3894.00
539.03,3811.00
541.10,3903.00
543.17,3881.00
545.24,3801.00
547.32,3884.00
549.39,3826.00
551.45,3747.00
553.52,3834.00
555.59,3866.00
557.66,3805.00
559.72,3856.00
561.78,3778.00
563.85,3829.00
565.91,3759.00
567.97,3793.00
570.03,3818.00
572.09,3786.00
574.15,3811.00
576.21,3755.00
578.26,3835.00
580.32,3723.00
582.37,3845.00
584.42,3849.00
586.48,3856.00
588.53,3724.00
590.58,3886.00
592.63,3777.00
594.68,3755.00
596.72,3782.00
598.77,3791.00
600.82,3823.00
602.86,3778.00
604.90,3732.00
606.95,3764.00
608.99,3795.00
611.03,3723.00
613.07,3731.00
615.11,3656.00
617.15,3733.00
619.18,3711.00
621.22,3641.00
623.25,3664.00
625.29,3649.00
627.32,3698.00
629.35,3632.00
631.38,3653.00
633.41,3573.00
635.44,3608.00
637.47,3643.00
639.50,3635.00
641.52,3698.00
643.55,3576.00
645.57,3587.00
647.60,3567.00
649.62,3582.00
651.64,3591.00
653.66,3591.00
655.68,3611.00
657.70,3562.00
659.71,3616.00
661.73,3570.00
663.75,3546.00
665.76,3600.00
667.77,3585.00
669.79,3641.00
671.80,3603.00
673.81,3544.00
675.82,3606.00
677.83,3595.00
679.83,3592.00
681.84,3546.00
683.84,3557.00
685.85,3599.00
687.85,3620.00
689.86,3546.00
691.86,3599.00
693.86,3624.00
695.86,3550.00
697.86,3576.00
699.85,3556.00
701.85,3636.00
703.85,3586.00
705.84,3679.00
707.84,3648.00
709.83,3647.00
711.82,3721.00
713.81,3723.00
715.80,3725.00
717.79,3734.00
719.78,3767.00
721.76,3728.00
723.75,3782.00
725.74,3742.00
727.72,3766.00
729.70,3803.00
731.68,3708.00
733.67,3725.00
735.65,3787.00
737.62,3727.00
739.60,3671.00
741.58,3698.00
743.56,3702.00
745.53,3729.00
747.51,3757.00
749.48,3763.00
751.45,3717.00
753.42,3698.00
755.39,3714.00
757.36,3651.00
759.33,3761.00
761.30,3833.00
763.26,3807.00
765.23,3865.00
767.19,3825.00
769.16,3926.00
771.12,3900.00
773.08,3880.00
775.04,3945.00
777.00,4039.00
778.96,4116.00
780.92,4205.00
782.87,4276.00
784.83,4320.00
786.78,4577.00
788.74,4737.00
790.69,5345.00
792.64,6462.00
794.59,8484.00
796.54,10927.00
798.49,12896.00
800.44,13800.00
802.38,12688.00
804.33,11577.00
806.27,9076.00
808.22,6754.00
810.16,5330.00
812.10,4640.00
814.04,4389.00
815.98,4204.00
817.92,4139.00
819.86,4126.00
821.80,4112.00
823.73,4115.00
825.67,4050.00
827.60,4001.00
829.53,3970.00
831.47,3912.00
833.40,3928.00
835.33,3943.00
837.26,3991.00
839.18,3995.00
841.11,4025.00
843.04,3928.00
844.96,4015.00
846.89,4050.00
848.81,3999.00
850.73,3960.00
852.65,3983.00
854.57,3957.00
856.49,3965.00
858.41,3968.00
860.33,3938.00
862.24,4042.00
864.16,3936.00
866.07,3968.00
867.99,3939.00
869.90,3982.00
871.81,3938.00
873.72,3953.00
875.63,3953.00
877.54,3951.00
879.44,3984.00
881.35,3932.00
883.26,3875.00
885.16,3892.00
887.06,3892.00
888.97,3932.00
890.87,3892.00
892.77,3886.00
894.67,3867.00
896.57,3822.00
898.46,3749.00
900.36,3767.00
902.26,3783.00
904.15,3820.00
906.04,3772.00
907.94,3752.00
909.83,3719.00
911.72,3725.00
913.61,3709.00
915.50,3647.00
917.38,3696.00
919.27,3622.00
921.16,3641.00
923.04,3604.00
924.92,3637.00
926.81,3636.00
928.69,3565.00
930.57,3616.00
932.45,3613.00
934.33,3620.00
936.20,3605.00
938.08,3576.00
939.96,3631.00
941.83,3577.00
943.71,3512.00
945.58,3427.00
947.45,3504.00
949.32,3495.00
951.19,3476.00
953.06,3442.00
954.93,3500.00
956.79,3442.00
958.66,3451.00
960.52,3447.00
962.39,3537.00
964.25,3506.00
966.11,3493.00
967.97,3504.00
969.83,3407.00
971.69,3557.00
973.55,3498.00
975.41,3518.00
977.26,3561.00
979.12,3485.00
980.97,3470.00
982.82,3538.00
984.68,3508.00
986.53,3601.00
988.38,3523.00
990.23,3555.00
992.07,3621.00
993.92,3644.00
995.77,3698.00
997.61,3715.00
999.46,3824.00
1001.30,3778.00
1003.14,3820.00
1004.98,3959.00
1006.82,4035.00
1008.66,4147.00
1010.50,4206.00
1012.34,4478.00
1014.17,4585.00
1016.01,4969.00
1017.84,5311.00
1019.68,5804.00
1021.51,6257.00
1023.34,6753.00
1025.17,7145.00
1027.00,7313.00
1028.83,7265.00
1030.65,7014.00
1032.48,6660.00
1034.31,6138.00
1036.13,5768.00
1037.95,5405.00
1039.77,5155.00
1041.60,4904.00
1043.42,4824.00
1045.24,4857.00
1047.05,4870.00
1048.87,5179.00
1050.69,5648.00
1052.50,6478.00
1054.32,7795.00
1056.13,9499.00
1057.94,11269.00
1059.75,12642.00
1061.56,13107.00
1063.37,12586.00
1065.18,11275.00
1066.99,9411.00
1068.80,7708.00
1070.60,6584.00
1072.41,5943.00
1074.21,5494.00
1076.01,5467.00
1077.81,5235.00
1079.61,5279.00
1081.41,5267.00
1083.21,5125.00
1085.01,5150.00
1086.81,4963.00
1088.60,4894.00
1090.40,4760.00
1092.19,4664.00
1093.98,4583.00
1095.77,4560.00
1097.56,4404.00
1099.35,4406.00
1101.14,4303.00
1102.93,4238.00
1104.72,4262.00
1106.50,4230.00
1108.29,4214.00
1110.07,4422.00
1111.85,4405.00
1113.63,4634.00
1115.41,4872.00
1117.19,5343.00
1118.97,6114.00
1120.75,7286.00
1122.53,8970.00
1124.30,10875.00
1126.08,12529.00
1127.85,13225.00
1129.62,13148.00
1131.39,11897.00
1133.17,10105.00
1134.93,8089.00
1136.70,6434.00
1138.47,5371.00
1140.24,4774.00
1142.00,4369.00
1143.77,4224.00
1145.53,4061.00
1147.29,4040.00
1149.06,4117.00
1150.82,4275.00
1152.58,4385.00
1154.34,4606.00
1156.09,4762.00
1157.85,4714.00
1159.61,4758.00
1161.36,4760.00
1163.11,4760.00
1164.87,4916.00
1166.62,5056.00
1168.37,5095.00
1170.12,5011.00
1171.87,4858.00
1173.62,4510.00
1175.36,4142.00
1177.11,3860.00
1178.85,3738.00
1180.60,3658.00
1182.34,3461.00
1184.08,3499.00
1185.82,3453.00
1187.56,3493.00
1189.30,3458.00
1191.04,3449.00
1192.78,3394.00
1194.51,3396.00
1196.25,3396.00
1197.98,3331.00
1199.71,3369.00
1201.45,3415.00
1203.18,3396.00
1204.91,3335.00
1206.64,3424.00
1208.36,3375.00
1210.09,3306.00
1211.82,3365.00
1213.54,3375.00
1215.27,3413.00
1216.99,3353.00
1218.71,3371.00
1220.43,3398.00
1222.15,3455.00
1223.87,3417.00
1225.59,3453.00
1227.31,3430.00
1229.02,3519.00
1230.74,3542.00
1232.45,3569.00
1234.16,3493.00
1235.88,3552.00
1237.59,3610.00
1239.30,3681.00
1241.01,3683.00
1242.71,3669.00
1244.42,3763.00
1246.13,3835.00
1247.83,4022.00
1249.54,4111.00
1251.24,4286.00
1252.94,4562.00
1254.64,4754.00
1256.34,5201.00
1258.04,5595.00
1259.74,6098.00
1261.44,6596.00
1263.13,7043.00
1264.83,7258.00
1266.52,7424.00
1268.22,7225.00
1269.91,6940.00
1271.60,6643.00
1273.29,6184.00
1274.98,5891.00
1276.67,5627.00
1278.35,5507.00
1280.04,5473.00
1281.73,5574.00
1283.41,5917.00
1285.09,6815.00
1286.78,8366.00
1288.46,10904.00
1290.14,13708.00
1291.82,16394.00
1293.49,17178.00
1295.17,17964.00
1296.85,16504.00
1298.52,14041.00
1300.20,11224.00
1301.87,9036.00
1303.54,7505.00
1305.21,6644.00
1306.88,5996.00
1308.55,5618.00
1310.22,5395.00
1311.89,5131.00
1313.56,4948.00
1315.22,4746.00
1316.89,4525.00
1318.55,4434.00
1320.21,4269.00
1321.87,4202.00
1323.53,4101.00
1325.19,4035.00
1326.85,3884.00
1328.51,3902.00
1330.16,3814.00
1331.82,3784.00
1333.47,3748.00
1335.13,3738.00
1336.78,3791.00
1338.43,3775.00
1340.08,3860.00
1341.73,3902.00
1343.38,3988.00
1345.03,3928.00
1346.67,3955.00
1348.32,4001.00
1349.96,3976.00
1351.61,3844.00
1353.25,3837.00
1354.89,3784.00
1356.53,3744.00
1358.17,3749.00
1359.81,3772.00
1361.45,3816.00
1363.08,3850.00
1364.72,3976.00
1366.35,4149.00
1367.99,4106.00
1369.62,4048.00
1371.25,4044.00
1372.88,3917.00
1374.51,3774.00
1376.14,3557.00
1377.77,3513.00
1379.39,3411.00
1381.02,3388.00
1382.64,3316.00
1384.27,3340.00
1385.89,3323.00
1387.51,3340.00
1389.13,3303.00
1390.75,3279.00
1392.37,3270.00
1393.99,3318.00
1395.60,3274.00
1397.22,3394.00
1398.83,3493.00
1400.45,3496.00
1402.06,3630.00
1403.67,3728.00
1405.28,3908.00
1406.89,4283.00
1408.50,5003.00
1410.11,6002.00
1411.71,6892.00
1413.32,7776.00
1414.92,8478.00
1416.53,8777.00
1418.13,8684.00
1419.73,8260.00
1421.33,7742.00
1422.93,7504.00
1424.53,7443.00
1426.13,7725.00
1427.72,8403.00
1429.32,9199.00
1430.91,10577.00
1432.51,12047.00
1434.10,13883.00
1435.69,15590.00
1437.28,17059.00
1438.87,18037.00
1440.46,18055.00
1442.05,17583.00
1443.64,16660.00
1445.22,15426.00
1446.81,14140.00
1448.39,13090.00
1449.97,12272.00
1451.55,11735.00
1453.14,11393.00
1454.72,11190.00
1456.29,11102.00
1457.87,11012.00
1459.45,11054.00
1461.02,10935.00
1462.60,10640.00
1464.17,10378.00
1465.75,9702.00
1467.32,9030.00
1468.89,8382.00
1470.46,7670.00
1472.03,7003.00
1473.59,6316.00
1475.16,5796.00
1476.73,5393.00
1478.29,4973.00
1479.86,4722.00
1481.42,4448.00
1482.98,4279.00
1484.54,4162.00
1486.10,3981.00
1487.66,3859.00
1489.22,3738.00
1490.77,3619.00
1492.33,3526.00
1493.88,3468.00
1495.44,3485.00
1496.99,3411.00
1498.54,3287.00
1500.09,3320.00
1501.64,3209.00
1503.19,3267.00
1504.74,3139.00
1506.29,3057.00
1507.83,3046.00
1509.38,3015.00
1510.92,3071.00
1512.47,3047.00
1514.01,3025.00
1515.55,3031.00
1517.09,2958.00
1518.63,2937.00
1520.16,2917.00
1521.70,2899.00
1523.24,2956.00
1524.77,2920.00
1526.31,2920.00
1527.84,2884.00
1529.37,2806.00
1530.90,2836.00
1532.43,2880.00
1533.96,2857.00
1535.49,2864.00
1537.02,2902.00
1538.54,2779.00
1540.07,2831.00
1541.59,2816.00
1543.11,2858.00
1544.64,2852.00
1546.16,2829.00
1547.68,2814.00
1549.20,2880.00
1550.71,2863.00
1552.23,2754.00
1553.75,2812.00
1555.26,2747.00
1556.78,2801.00
1558.29,2806.00
1559.80,2766.00
1561.31,2740.00
1562.82,2740.00
1564.33,2716.00
1565.84,2684.00
1567.35,2707.00
1568.85,2696.00
1570.36,2671.00
1571.86,2713.00
1573.36,2704.00
1574.87,2667.00
1576.37,2629.00
1577.87,2629.00
1579.37,2665.00
1580.87,2637.00
1582.36,2594.00
1583.86,2639.00
1585.35,2584.00
1586.85,2604.00
1588.34,2606.00
1589.83,2593.00
1591.32,2577.00
1592.81,2561.00
1594.30,2561.00
1595.79,2553.00
1597.28,2551.00
1598.76,2541.00
1600.25,2507.00
1601.73,2557.00
1603.22,2538.00
1604.70,2555.00
1606.18,2477.00
1607.66,2456.00
1609.14,2490.00
1610.62,2484.00
1612.10,2461.00
1613.57,2423.00
1615.05,2485.00
1616.52,2515.00
1617.99,2438.00
1619.47,2416.00
1620.94,2485.00
1622.41,2416.00
1623.88,2405.00
1625.35,2380.00
1626.81,2465.00
1628.28,2414.00
1629.74,2427.00
1631.21,2351.00
1632.67,2393.00
1634.13,2423.00
1635.60,2439.00
1637.06,2385.00
1638.51,2418.00
1639.97,2435.00
1641.43,2431.00
1642.89,2414.00
1644.34,2395.00
1645.80,2372.00
1647.25,2360.00
1648.70,2364.00
1650.15,2311.00
1651.60,2300.00
1653.05,2279.00
1654.50,2296.00
1655.95,2241.00
1657.40,2260.00
1658.84,2246.00
1660.28,2291.00
1661.73,2235.00
1663.17,2249.00
1664.61,2229.00
1666.05,2259.00
1667.49,2247.00
1668.93,2203.00
1670.37,2169.00
1671.80,2176.00
1673.24,2189.00
1674.67,2189.00
1676.11,2121.00
1677.54,2171.00
1678.97,2136.00
1680.40,2175.00
1681.83,2106.00
1683.26,2150.00
1684.69,2199.00
1686.11,2153.00
1687.54,2159.00
1688.96,2153.00
1690.39,2152.00
1691.81,2094.00
1693.23,2123.00
1694.65,2112.00
1696.07,2150.00
1697.49,2050.00
1698.91,2094.00
1700.32,2104.00
1701.74,2089.00
1703.15,2106.00
1704.57,2098.00
1705.98,2057.00
1707.39,2053.00
1708.80,2123.00
1710.21,1978.00
1711.62,2018.00
1713.03,2043.00
1714.43,2056.00
1715.84,2011.00
1717.24,2022.00
1718.65,2038.00
1720.05,2014.00
1721.45,1991.00
1722.85,1982.00
1724.25,1985.00
1725.65,2011.00
1727.05,1988.00
1728.44,2007.00
1729.84,1976.00
1731.23,1971.00
1732.63,1971.00
1734.02,1967.00
1735.41,1952.00
1736.80,1935.00
1738.19,1961.00
1739.58,1877.00
1740.97,1914.00
1742.35,1937.00
1743.74,1899.00
1745.12,1905.00
1746.51,1891.00
1747.89,1914.00
1749.27,1922.00
1750.65,1876.00
1752.03,1878.00
1753.41,1870.00
1754.79,1858.00
1756.17,1843.00
1757.54,1889.00
1758.92,1863.00
1760.29,1818.00
1761.66,1815.00
1763.03,1832.00
1764.41,1847.00
1765.78,1849.00
1767.14,1819.00
1768.51,1847.00
1769.88,1815.00
1771.24,1881.00
1772.61,1781.00
1773.97,1830.00
1775.34,1771.00
1776.70,1771.00
1778.06,1814.00
1779.42,1802.00
1780.78,1796.00
1782.13,1710.00
1783.49,1748.00
1784.85,1754.00
1786.20,1748.00
1787.56,1769.00
1788.91,1777.00
1790.26,1790.00
1791.61,1739.00
1792.96,1733.00
1794.31,1756.00
1795.66,1750.00
1797.00,1699.00
1798.35,1702.00
1799.69,1683.00
1801.04,1638.00
1802.38,1647.00
1803.72,1705.00
1805.06,1668.00
1806.40,1647.00
1807.74,1680.00
1809.08,1640.00
1810.42,1663.00
1811.75,1672.00
1813.09,1661.00
1814.42,1617.00
1815.76,1638.00
1817.09,1644.00
1818.42,1640.00
1819.75,1611.00
1821.08,1628.00
1822.40,1558.00
1823.73,1558.00
1825.06,1610.00
1826.38,1605.00
1827.71,1556.00
1829.03,1592.00
1830.35,1589.00
1831.67,1553.00
1832.99,1552.00
1834.31,1532.00
1835.63,1510.00
1836.95,1550.00
1838.26,1533.00
1839.58,1528.00
1840.89,1550.00
1842.20,1539.00
1843.52,1520.00
1844.83,1522.00
1846.14,1496.00
1847.45,1507.00
1848.75,1512.00
1850.06,1456.00
1851.37,1484.00
1852.67,1461.00
1853.98,1507.00
1855.28,1402.00
1856.58,1432.00
1857.88,1444.00
1859.18,1487.00
1860.48,1432.00
1861.78,1383.00
1863.08,1430.00
1864.37,1438.00
1865.67,1406.00
1866.96,1397.00
1868.26,1396.00
1869.55,1360.00
1870.84,1395.00
1872.13,1362.00
1873.42,1358.00
1874.71,1385.00
1875.99,1320.00
1877.28,1370.00
1878.56,1414.00
1879.85,1367.00
1881.13,1370.00
1882.41,1343.00
1883.69,1316.00
1884.97,1349.00
1886.25,1322.00
1887.53,1313.00
1888.81,1331.00
1890.09,1286.00
1891.36,1339.00
1892.63,1296.00
1893.91,1278.00
1895.18,1305.00
1896.45,1288.00
1897.72,1269.00
1898.99,1255.00
1900.26,1281.00
1901.53,1262.00
1902.79,1282.00
1904.06,1268.00
1905.32,1231.00
1906.58,1233.00
1907.85,1295.00
1909.11,1246.00
1910.37,1257.00
1911.63,1199.00
1912.89,1204.00
1914.14,1180.00
1915.40,1218.00
1916.65,1198.00
1917.91,1204.00
1919.16,1175.00
1920.41,1211.00
1921.67,1240.00
1922.92,1187.00
1924.17,1199.00
1925.41,1130.00
1926.66,1149.00
1927.91,1168.00
1929.15,1127.00
1930.40,1149.00
1931.64,1147.00
1932.88,1172.00
1934.12,1172.00
1935.36,1138.00
1936.60,1138.00
1937.84,1116.00
1939.08,1111.00
1940.32,1098.00
1941.55,1117.00
1942.79,1138.00
1944.02,1147.00
1945.25,1144.00
1946.48,1171.00
1947.71,1117.00
1948.94,1066.00
1950.17,1122.00
1951.40,1115.00
1952.62,1105.00
1953.85,1071.00
1955.07,1090.00
1956.30,1100.00
1957.52,1069.00
1958.74,1129.00
1959.96,1073.00
1961.18,1094.00
1962.40,1052.00
1963.62,1073.00
1964.83,1056.00
1966.05,1067.00
1967.26,1063.00
1968.48,1050.00
1969.69,1040.00
1970.90,1073.00
1972.11,1053.00
1973.32,1073.00
1974.53,1062.00
1975.74,1048.00
1976.94,1055.00
1978.15,1014.00
1979.35,980.00
1980.56,1029.00
1981.76,1056.00
1982.96,1035.00
1984.16,1010.00
1985.36,987.00
1986.56,1010.00
1987.76,985.00
1988.95,1029.00
1990.15,993.00
1991.34,982.00
1992.54,997.00
1993.73,961.00
1994.92,976.00
1996.11,978.00
1997.30,972.00
1998.49,974.00
1999.68,955.00
