ENLIGHTEN Version,1.7.2
Measurement ID,20190716-204452-044226-WP-00340
Serial Number,WP-00340
Label,Ethanol-4mm-HDPE
Integration Time,2000
Timestamp,2019-07-16 20:44:52.044226
Note,
Temperature,-99
CCD C0,801.7174072265625
CCD C1,0.14122000336647034
CCD C2,-5.609700110653648e-06
CCD C3,-8.541699791919655e-09
CCD Offset,0
CCD Gain,1.9
Laser Wavelength,785.0
Laser Enable,True
Laser Power,100.0
Laser Temperature,-99
Pixel Count,1024

Wavenumber,Processed
265.63,263.00
267.83,341.00
270.02,412.00
272.22,504.00
274.41,620.00
276.60,835.00
278.80,1100.00
280.99,1386.00
283.18,1762.00
285.37,2123.00
287.55,2657.00
289.74,3017.00
291.93,3529.00
294.11,4008.00
296.30,4269.00
298.48,4604.00
300.66,4926.00
302.84,5125.00
305.02,5165.00
307.20,5361.00
309.38,5328.00
311.56,5390.00
313.74,5386.00
315.91,5401.00
318.09,5357.00
320.26,5456.00
322.43,5411.00
324.61,5425.00
326.78,5492.00
328.95,5518.00
331.12,5543.00
333.28,5541.00
335.45,5634.00
337.62,5667.00
339.78,5608.00
341.95,5623.00
344.11,5629.00
346.27,5700.00
348.43,5686.00
350.59,5642.00
352.75,5703.00
354.91,5626.00
357.07,5651.00
359.23,5676.00
361.38,5728.00
363.54,5656.00
365.69,5732.00
367.84,5766.00
370.00,5772.00
372.15,5745.00
374.30,5720.00
376.45,5779.00
378.59,5715.00
380.74,5852.00
382.89,5800.00
385.03,5833.00
387.18,5844.00
389.32,5842.00
391.46,5800.00
393.60,5896.00
395.74,6008.00
397.88,5966.00
400.02,5944.00
402.16,5986.00
404.29,5929.00
406.43,5945.00
408.57,5977.00
410.70,5892.00
412.83,5967.00
414.96,5957.00
417.09,5989.00
419.22,5915.00
421.35,5985.00
423.48,5983.00
425.61,5880.00
427.73,5945.00
429.86,5943.00
431.98,5973.00
434.11,5947.00
436.23,5916.00
438.35,5882.00
440.47,5900.00
442.59,5969.00
444.71,5909.00
446.82,5966.00
448.94,5897.00
451.05,5974.00
453.17,5905.00
455.28,5966.00
457.39,5901.00
459.51,5894.00
461.62,5861.00
463.73,5859.00
465.83,5768.00
467.94,5865.00
470.05,5927.00
472.15,5902.00
474.26,5972.00
476.36,5913.00
478.47,5928.00
480.57,5981.00
482.67,5989.00
484.77,5934.00
486.87,5914.00
488.97,5945.00
491.06,5920.00
493.16,5941.00
495.25,5901.00
497.35,5785.00
499.44,5758.00
501.53,5707.00
503.62,5679.00
505.71,5623.00
507.80,5498.00
509.89,5536.00
511.98,5475.00
514.07,5422.00
516.15,5480.00
518.24,5408.00
520.32,5460.00
522.40,5334.00
524.48,5336.00
526.56,5325.00
528.64,5217.00
530.72,5260.00
532.80,5224.00
534.88,5304.00
536.95,5250.00
539.03,5224.00
541.10,5291.00
543.17,5197.00
545.24,5217.00
547.32,5190.00
549.39,5210.00
551.45,5186.00
553.52,5220.00
555.59,5173.00
557.66,5159.00
559.72,5184.00
561.78,5199.00
563.85,5102.00
565.91,5137.00
567.97,5137.00
570.03,5222.00
572.09,5146.00
574.15,5153.00
576.21,5197.00
578.26,5102.00
580.32,5183.00
582.37,5239.00
584.42,5151.00
586.48,5217.00
588.53,5160.00
590.58,5199.00
592.63,5175.00
594.68,5148.00
596.72,5184.00
598.77,5232.00
600.82,5203.00
602.86,5191.00
604.90,5192.00
606.95,5124.00
608.99,5104.00
611.03,5106.00
613.07,5052.00
615.11,5087.00
617.15,5043.00
619.18,5065.00
621.22,5064.00
623.25,5003.00
625.29,5007.00
627.32,5174.00
629.35,4982.00
631.38,5042.00
633.41,5043.00
635.44,5025.00
637.47,5007.00
639.50,5077.00
641.52,4912.00
643.55,4952.00
645.57,4935.00
647.60,4967.00
649.62,4965.00
651.64,4950.00
653.66,4961.00
655.68,5026.00
657.70,5053.00
659.71,5032.00
661.73,4950.00
663.75,4965.00
665.76,4967.00
667.77,5009.00
669.79,5005.00
671.80,4927.00
673.81,5009.00
675.82,4957.00
677.83,5001.00
679.83,4967.00
681.84,4982.00
683.84,5017.00
685.85,4956.00
687.85,4951.00
689.86,5002.00
691.86,4948.00
693.86,4969.00
695.86,5035.00
697.86,5004.00
699.85,5060.00
701.85,5045.00
703.85,5049.00
705.84,5146.00
707.84,5041.00
709.83,5119.00
711.82,5138.00
713.81,5172.00
715.80,5230.00
717.79,5241.00
719.78,5283.00
721.76,5279.00
723.75,5306.00
725.74,5315.00
727.72,5307.00
729.70,5235.00
731.68,5243.00
733.67,5237.00
735.65,5177.00
737.62,5222.00
739.60,5220.00
741.58,5234.00
743.56,5254.00
745.53,5199.00
747.51,5149.00
749.48,5148.00
751.45,5163.00
753.42,5182.00
755.39,5136.00
757.36,5168.00
759.33,5184.00
761.30,5098.00
763.26,5169.00
765.23,5216.00
767.19,5243.00
769.16,5283.00
771.12,5270.00
773.08,5332.00
775.04,5330.00
777.00,5386.00
778.96,5325.00
780.92,5360.00
782.87,5402.00
784.83,5385.00
786.78,5403.00
788.74,5418.00
790.69,5416.00
792.64,5450.00
794.59,5468.00
796.54,5430.00
798.49,5476.00
800.44,5430.00
802.38,5442.00
804.33,5454.00
806.27,5513.00
808.22,5473.00
810.16,5500.00
812.10,5536.00
814.04,5462.00
815.98,5513.00
817.92,5433.00
819.86,5492.00
821.80,5500.00
823.73,5488.00
825.67,5462.00
827.60,5530.00
829.53,5507.00
831.47,5507.00
833.40,5545.00
835.33,5583.00
837.26,5516.00
839.18,5516.00
841.11,5596.00
843.04,5633.00
844.96,5576.00
846.89,5648.00
848.81,5726.00
850.73,5669.00
852.65,5680.00
854.57,5671.00
856.49,5719.00
858.41,5661.00
860.33,5732.00
862.24,5798.00
864.16,5716.00
866.07,5799.00
867.99,5842.00
869.90,5811.00
871.81,5835.00
873.72,5899.00
875.63,6036.00
877.54,5995.00
879.44,5992.00
881.35,5992.00
883.26,6048.00
885.16,6078.00
887.06,5912.00
888.97,5844.00
890.87,5833.00
892.77,5752.00
894.67,5745.00
896.57,5614.00
898.46,5555.00
900.36,5511.00
902.26,5483.00
904.15,5487.00
906.04,5446.00
907.94,5446.00
909.83,5399.00
911.72,5386.00
913.61,5393.00
915.50,5405.00
917.38,5351.00
919.27,5330.00
921.16,5355.00
923.04,5355.00
924.92,5270.00
926.81,5245.00
928.69,5211.00
930.57,5281.00
932.45,5260.00
934.33,5171.00
936.20,5210.00
938.08,5207.00
939.96,5110.00
941.83,5133.00
943.71,5148.00
945.58,5076.00
947.45,5051.00
949.32,5028.00
951.19,4995.00
953.06,5005.00
954.93,4999.00
956.79,5041.00
958.66,4952.00
960.52,5074.00
962.39,5001.00
964.25,4948.00
966.11,4942.00
967.97,4975.00
969.83,4963.00
971.69,5005.00
973.55,4987.00
975.41,5055.00
977.26,5022.00
979.12,4967.00
980.97,4970.00
982.82,4976.00
984.68,5072.00
986.53,5033.00
988.38,4996.00
990.23,5041.00
992.07,5014.00
993.92,5060.00
995.77,5087.00
997.61,5127.00
999.46,5089.00
1001.30,5072.00
1003.14,5115.00
1004.98,5076.00
1006.82,5133.00
1008.66,5152.00
1010.50,5228.00
1012.34,5207.00
1014.17,5249.00
1016.01,5241.00
1017.84,5223.00
1019.68,5260.00
1021.51,5319.00
1023.34,5388.00
1025.17,5361.00
1027.00,5407.00
1028.83,5485.00
1030.65,5522.00
1032.48,5494.00
1034.31,5669.00
1036.13,5618.00
1037.95,5800.00
1039.77,5871.00
1041.60,5942.00
1043.42,6029.00
1045.24,6257.00
1047.05,6598.00
1048.87,7082.00
1050.69,7914.00
1052.50,9424.00
1054.32,11650.00
1056.13,14589.00
1057.94,17500.00
1059.75,19927.00
1061.56,20724.00
1063.37,19919.00
1065.18,17787.00
1066.99,14889.00
1068.80,12106.00
1070.60,10071.00
1072.41,8896.00
1074.21,8336.00
1076.01,8052.00
1077.81,8064.00
1079.61,7899.00
1081.41,7986.00
1083.21,7790.00
1085.01,7640.00
1086.81,7593.00
1088.60,7427.00
1090.40,7204.00
1092.19,7060.00
1093.98,6908.00
1095.77,6746.00
1097.56,6475.00
1099.35,6520.00
1101.14,6432.00
1102.93,6299.00
1104.72,6291.00
1106.50,6352.00
1108.29,6409.00
1110.07,6536.00
1111.85,6624.00
1113.63,6980.00
1115.41,7440.00
1117.19,8169.00
1118.97,9260.00
1120.75,11239.00
1122.53,13942.00
1124.30,17060.00
1126.08,19689.00
1127.85,20919.00
1129.62,20723.00
1131.39,18873.00
1133.17,15921.00
1134.93,12702.00
1136.70,9929.00
1138.47,8172.00
1140.24,7140.00
1142.00,6513.00
1143.77,6073.00
1145.53,5771.00
1147.29,5796.00
1149.06,5660.00
1150.82,5578.00
1152.58,5559.00
1154.34,5526.00
1156.09,5551.00
1157.85,5541.00
1159.61,5787.00
1161.36,6069.00
1163.11,6466.00
1164.87,6999.00
1166.62,7343.00
1168.37,7596.00
1170.12,7410.00
1171.87,7231.00
1173.62,6607.00
1175.36,6087.00
1177.11,5714.00
1178.85,5429.00
1180.60,5232.00
1182.34,5142.00
1184.08,5087.00
1185.82,5017.00
1187.56,4990.00
1189.30,4856.00
1191.04,4876.00
1192.78,4895.00
1194.51,4893.00
1196.25,4883.00
1197.98,4743.00
1199.71,4825.00
1201.45,4844.00
1203.18,4786.00
1204.91,4851.00
1206.64,4769.00
1208.36,4761.00
1210.09,4764.00
1211.82,4724.00
1213.54,4705.00
1215.27,4725.00
1216.99,4703.00
1218.71,4761.00
1220.43,4807.00
1222.15,4743.00
1223.87,4739.00
1225.59,4733.00
1227.31,4739.00
1229.02,4788.00
1230.74,4832.00
1232.45,4760.00
1234.16,4788.00
1235.88,4794.00
1237.59,4800.00
1239.30,4832.00
1241.01,4723.00
1242.71,4735.00
1244.42,4847.00
1246.13,4830.00
1247.83,4874.00
1249.54,4887.00
1251.24,4952.00
1252.94,4984.00
1254.64,5158.00
1256.34,5144.00
1258.04,5274.00
1259.74,5338.00
1261.44,5524.00
1263.13,5551.00
1264.83,5701.00
1266.52,5902.00
1268.22,5905.00
1269.91,5952.00
1271.60,6017.00
1273.29,6036.00
1274.98,6126.00
1276.67,6287.00
1278.35,6318.00
1280.04,6559.00
1281.73,7078.00
1283.41,7783.00
1285.09,9270.00
1286.78,11954.00
1288.46,16170.00
1290.14,20924.00
1291.82,25375.00
1293.49,26810.00
1295.17,28244.00
1296.85,26083.00
1298.52,22344.00
1300.20,17800.00
1301.87,13973.00
1303.54,11432.00
1305.21,9787.00
1306.88,8934.00
1308.55,8306.00
1310.22,7737.00
1311.89,7442.00
1313.56,7025.00
1315.22,6637.00
1316.89,6392.00
1318.55,6125.00
1320.21,6000.00
1321.87,5782.00
1323.53,5481.00
1325.19,5363.00
1326.85,5304.00
1328.51,5119.00
1330.16,5096.00
1331.82,4986.00
1333.47,4851.00
1335.13,4845.00
1336.78,4732.00
1338.43,4717.00
1340.08,4761.00
1341.73,4634.00
1343.38,4697.00
1345.03,4662.00
1346.67,4659.00
1348.32,4680.00
1349.96,4556.00
1351.61,4649.00
1353.25,4638.00
1354.89,4712.00
1356.53,4717.00
1358.17,4765.00
1359.81,4933.00
1361.45,5051.00
1363.08,5279.00
1364.72,5471.00
1366.35,5667.00
1367.99,5802.00
1369.62,5650.00
1371.25,5608.00
1372.88,5380.00
1374.51,5148.00
1376.14,4927.00
1377.77,4754.00
1379.39,4551.00
1381.02,4526.00
1382.64,4440.00
1384.27,4440.00
1385.89,4343.00
1387.51,4427.00
1389.13,4316.00
1390.75,4328.00
1392.37,4454.00
1393.99,4431.00
1395.60,4446.00
1397.22,4438.00
1398.83,4484.00
1400.45,4619.00
1402.06,4769.00
1403.67,5018.00
1405.28,5460.00
1406.89,6017.00
1408.50,7065.00
1410.11,8420.00
1411.71,10019.00
1413.32,11418.00
1414.92,12536.00
1416.53,12840.00
1418.13,12519.00
1419.73,11939.00
1421.33,11091.00
1422.93,10322.00
1424.53,10246.00
1426.13,10393.00
1427.72,11243.00
1429.32,12651.00
1430.91,14357.00
1432.51,16836.00
1434.10,19343.00
1435.69,21744.00
1437.28,23624.00
1438.87,24563.00
1440.46,24440.00
1442.05,23260.00
1443.64,21571.00
1445.22,19796.00
1446.81,18000.00
1448.39,16754.00
1449.97,15928.00
1451.55,15550.00
1453.14,15656.00
1454.72,15597.00
1456.29,15763.00
1457.87,16035.00
1459.45,16100.00
1461.02,15955.00
1462.60,15753.00
1464.17,15240.00
1465.75,14194.00
1467.32,13267.00
1468.89,12236.00
1470.46,11098.00
1472.03,10080.00
1473.59,9129.00
1475.16,8211.00
1476.73,7551.00
1478.29,7006.00
1479.86,6518.00
1481.42,6139.00
1482.98,5924.00
1484.54,5654.00
1486.10,5306.00
1487.66,5188.00
1489.22,5070.00
1490.77,4899.00
1492.33,4844.00
1493.88,4725.00
1495.44,4562.00
1496.99,4493.00
1498.54,4543.00
1500.09,4365.00
1501.64,4386.00
1503.19,4220.00
1504.74,4212.00
1506.29,4215.00
1507.83,4080.00
1509.38,4079.00
1510.92,4105.00
1512.47,4071.00
1514.01,3993.00
1515.55,4056.00
1517.09,3988.00
1518.63,3978.00
1520.16,4028.00
1521.70,3949.00
1523.24,3970.00
1524.77,3868.00
1526.31,3958.00
1527.84,3854.00
1529.37,3928.00
1530.90,3829.00
1532.43,3834.00
1533.96,3820.00
1535.49,3883.00
1537.02,3884.00
1538.54,3778.00
1540.07,3788.00
1541.59,3848.00
1543.11,3860.00
1544.64,3769.00
1546.16,3813.00
1547.68,3705.00
1549.20,3738.00
1550.71,3776.00
1552.23,3725.00
1553.75,3740.00
1555.26,3823.00
1556.78,3772.00
1558.29,3772.00
1559.80,3704.00
1561.31,3717.00
1562.82,3584.00
1564.33,3608.00
1565.84,3609.00
1567.35,3611.00
1568.85,3636.00
1570.36,3639.00
1571.86,3609.00
1573.36,3588.00
1574.87,3573.00
1576.37,3647.00
1577.87,3538.00
1579.37,3521.00
1580.87,3488.00
1582.36,3538.00
1583.86,3529.00
1585.35,3510.00
1586.85,3441.00
1588.34,3457.00
1589.83,3456.00
1591.32,3519.00
1592.81,3439.00
1594.30,3409.00
1595.79,3378.00
1597.28,3337.00
1598.76,3394.00
1600.25,3391.00
1601.73,3369.00
1603.22,3380.00
1604.70,3375.00
1606.18,3316.00
1607.66,3350.00
1609.14,3371.00
1610.62,3335.00
1612.10,3306.00
1613.57,3295.00
1615.05,3320.00
1616.52,3242.00
1617.99,3255.00
1619.47,3199.00
1620.94,3222.00
1622.41,3230.00
1623.88,3210.00
1625.35,3249.00
1626.81,3185.00
1628.28,3165.00
1629.74,3239.00
1631.21,3192.00
1632.67,3182.00
1634.13,3206.00
1635.60,3204.00
1637.06,3212.00
1638.51,3223.00
1639.97,3205.00
1641.43,3212.00
1642.89,3222.00
1644.34,3265.00
1645.80,3194.00
1647.25,3099.00
1648.70,3109.00
1650.15,3030.00
1651.60,3061.00
1653.05,3073.00
1654.50,3047.00
1655.95,3018.00
1657.40,2993.00
1658.84,2991.00
1660.28,2952.00
1661.73,2985.00
1663.17,3000.00
1664.61,2960.00
1666.05,2962.00
1667.49,2922.00
1668.93,2899.00
1670.37,2937.00
1671.80,2850.00
1673.24,2878.00
1674.67,2884.00
1676.11,2829.00
1677.54,2827.00
1678.97,2835.00
1680.40,2851.00
1681.83,2842.00
1683.26,2806.00
1684.69,2831.00
1686.11,2844.00
1687.54,2826.00
1688.96,2831.00
1690.39,2778.00
1691.81,2772.00
1693.23,2753.00
1694.65,2711.00
1696.07,2798.00
1697.49,2747.00
1698.91,2743.00
1700.32,2795.00
1701.74,2753.00
1703.15,2741.00
1704.57,2768.00
1705.98,2753.00
1707.39,2790.00
1708.80,2734.00
1710.21,2677.00
1711.62,2658.00
1713.03,2686.00
1714.43,2685.00
1715.84,2698.00
1717.24,2726.00
1718.65,2690.00
1720.05,2684.00
1721.45,2650.00
1722.85,2595.00
1724.25,2665.00
1725.65,2629.00
1727.05,2602.00
1728.44,2671.00
1729.84,2610.00
1731.23,2664.00
1732.63,2661.00
1734.02,2580.00
1735.41,2593.00
1736.80,2578.00
1738.19,2566.00
1739.58,2560.00
1740.97,2556.00
1742.35,2574.00
1743.74,2550.00
1745.12,2525.00
1746.51,2516.00
1747.89,2513.00
1749.27,2583.00
1750.65,2543.00
1752.03,2498.00
1753.41,2517.00
1754.79,2509.00
1756.17,2473.00
1757.54,2464.00
1758.92,2466.00
1760.29,2465.00
1761.66,2491.00
1763.03,2517.00
1764.41,2445.00
1765.78,2462.00
1767.14,2507.00
1768.51,2369.00
1769.88,2390.00
1771.24,2443.00
1772.61,2401.00
1773.97,2429.00
1775.34,2431.00
1776.70,2418.00
1778.06,2435.00
1779.42,2368.00
1780.78,2346.00
1782.13,2334.00
1783.49,2346.00
1784.85,2363.00
1786.20,2338.00
1787.56,2359.00
1788.91,2312.00
1790.26,2351.00
1791.61,2289.00
1792.96,2347.00
1794.31,2296.00
1795.66,2307.00
1797.00,2262.00
1798.35,2248.00
1799.69,2201.00
1801.04,2241.00
1802.38,2234.00
1803.72,2243.00
1805.06,2217.00
1806.40,2227.00
1807.74,2210.00
1809.08,2245.00
1810.42,2193.00
1811.75,2182.00
1813.09,2146.00
1814.42,2169.00
1815.76,2161.00
1817.09,2140.00
1818.42,2168.00
1819.75,2161.00
1821.08,2149.00
1822.40,2163.00
1823.73,2104.00
1825.06,2024.00
1826.38,2098.00
1827.71,2068.00
1829.03,2047.00
1830.35,2087.00
1831.67,2023.00
1832.99,2039.00
1834.31,2068.00
1835.63,2015.00
1836.95,2072.00
1838.26,2013.00
1839.58,2049.00
1840.89,2034.00
1842.20,1960.00
1843.52,2022.00
1844.83,1980.00
1846.14,1980.00
1847.45,1952.00
1848.75,1950.00
1850.06,1940.00
1851.37,1931.00
1852.67,1929.00
1853.98,1897.00
1855.28,1933.00
1856.58,1899.00
1857.88,1939.00
1859.18,1904.00
1860.48,1866.00
1861.78,1885.00
1863.08,1876.00
1864.37,1889.00
1865.67,1837.00
1866.96,1884.00
1868.26,1822.00
1869.55,1832.00
1870.84,1816.00
1872.13,1819.00
1873.42,1803.00
1874.71,1775.00
1875.99,1763.00
1877.28,1818.00
1878.56,1798.00
1879.85,1788.00
1881.13,1774.00
1882.41,1824.00
1883.69,1783.00
1884.97,1771.00
1886.25,1763.00
1887.53,1710.00
1888.81,1775.00
1890.09,1707.00
1891.36,1737.00
1892.63,1760.00
1893.91,1713.00
1895.18,1674.00
1896.45,1649.00
1897.72,1737.00
1898.99,1663.00
1900.26,1644.00
1901.53,1634.00
1902.79,1619.00
1904.06,1676.00
1905.32,1638.00
1906.58,1668.00
1907.85,1573.00
1909.11,1634.00
1910.37,1588.00
1911.63,1659.00
1912.89,1625.00
1914.14,1596.00
1915.40,1610.00
1916.65,1579.00
1917.91,1547.00
1919.16,1571.00
1920.41,1592.00
1921.67,1564.00
1922.92,1558.00
1924.17,1530.00
1925.41,1541.00
1926.66,1543.00
1927.91,1572.00
1929.15,1569.00
1930.40,1518.00
1931.64,1545.00
1932.88,1475.00
1934.12,1478.00
1935.36,1516.00
1936.60,1507.00
1937.84,1526.00
1939.08,1466.00
1940.32,1517.00
1941.55,1472.00
1942.79,1450.00
1944.02,1484.00
1945.25,1450.00
1946.48,1440.00
1947.71,1354.00
1948.94,1393.00
1950.17,1427.00
1951.40,1452.00
1952.62,1444.00
1953.85,1413.00
1955.07,1423.00
1956.30,1435.00
1957.52,1372.00
1958.74,1421.00
1959.96,1406.00
1961.18,1387.00
1962.40,1445.00
1963.62,1391.00
1964.83,1390.00
1966.05,1345.00
1967.26,1470.00
1968.48,1379.00
1969.69,1286.00
1970.90,1347.00
1972.11,1375.00
1973.32,1414.00
1974.53,1330.00
1975.74,1316.00
1976.94,1337.00
1978.15,1381.00
1979.35,1333.00
1980.56,1337.00
1981.76,1299.00
1982.96,1329.00
1984.16,1309.00
1985.36,1329.00
1986.56,1322.00
1987.76,1337.00
1988.95,1315.00
1990.15,1301.00
1991.34,1296.00
1992.54,1286.00
1993.73,1322.00
1994.92,1292.00
1996.11,1250.00
1997.30,1260.00
1998.49,1249.00
1999.68,1240.00
