ENLIGHTEN Version,1.7.2
Measurement ID,20190716-204546-483836-WP-00340
Serial Number,WP-00340
Label,Ibuprofen-4mm-HDPE
Integration Time,2000
Timestamp,2019-07-16 20:45:46.483836
Note,
Temperature,-99
CCD C0,801.7174072265625
CCD C1,0.14122000336647034
CCD C2,-5.609700110653648e-06
CCD C3,-8.541699791919655e-09
CCD Offset,0
CCD Gain,1.9
Laser Wavelength,785.0
Laser Enable,True
Laser Power,100.0
Laser Temperature,-99
Pixel Count,1024

Wavenumber,Processed
265.63,368.00
267.83,424.00
270.02,551.00
272.22,702.00
274.41,854.00
276.60,1142.00
278.80,1455.00
280.99,1839.00
283.18,2376.00
285.37,2812.00
287.55,3474.00
289.74,4118.00
291.93,4807.00
294.11,5336.00
296.30,5838.00
298.48,6280.00
300.66,6761.00
302.84,6938.00
305.02,7014.00
307.20,7172.00
309.38,7208.00
311.56,7168.00
313.74,7279.00
315.91,7246.00
318.09,7282.00
320.26,7215.00
322.43,7336.00
324.61,7344.00
326.78,7324.00
328.95,7368.00
331.12,7412.00
333.28,7447.00
335.45,7501.00
337.62,7486.00
339.78,7554.00
341.95,7583.00
344.11,7495.00
346.27,7659.00
348.43,7632.00
350.59,7742.00
352.75,7718.00
354.91,7612.00
357.07,7616.00
359.23,7621.00
361.38,7728.00
363.54,7691.00
365.69,7712.00
367.84,7598.00
370.00,7640.00
372.15,7640.00
374.30,7687.00
376.45,7760.00
378.59,7733.00
380.74,7749.00
382.89,7818.00
385.03,7712.00
387.18,7788.00
389.32,7863.00
391.46,7756.00
393.60,7808.00
395.74,7906.00
397.88,7889.00
400.02,7923.00
402.16,7868.00
404.29,7961.00
406.43,7979.00
408.57,7958.00
410.70,7884.00
412.83,8136.00
414.96,8040.00
417.09,8083.00
419.22,8085.00
421.35,8079.00
423.48,8037.00
425.61,8060.00
427.73,7986.00
429.86,7996.00
431.98,7927.00
434.11,7933.00
436.23,7971.00
438.35,7884.00
440.47,7880.00
442.59,7894.00
444.71,7880.00
446.82,7855.00
448.94,7780.00
451.05,7809.00
453.17,7812.00
455.28,7886.00
457.39,7873.00
459.51,7830.00
461.62,7813.00
463.73,7855.00
465.83,7804.00
467.94,7825.00
470.05,7856.00
472.15,7828.00
474.26,7884.00
476.36,7874.00
478.47,7777.00
480.57,7846.00
482.67,7935.00
484.77,7920.00
486.87,7912.00
488.97,7972.00
491.06,7930.00
493.16,7997.00
495.25,7944.00
497.35,7902.00
499.44,7752.00
501.53,7740.00
503.62,7646.00
505.71,7603.00
507.80,7567.00
509.89,7545.00
511.98,7488.00
514.07,7515.00
516.15,7430.00
518.24,7373.00
520.32,7377.00
522.40,7290.00
524.48,7349.00
526.56,7279.00
528.64,7203.00
530.72,7263.00
532.80,7233.00
534.88,7330.00
536.95,7227.00
539.03,7159.00
541.10,7227.00
543.17,7181.00
545.24,7155.00
547.32,7185.00
549.39,7152.00
551.45,7172.00
553.52,7166.00
555.59,7122.00
557.66,7120.00
559.72,7113.00
561.78,7214.00
563.85,7100.00
565.91,7170.00
567.97,7077.00
570.03,7173.00
572.09,7189.00
574.15,7174.00
576.21,7213.00
578.26,7170.00
580.32,7189.00
582.37,7283.00
584.42,7156.00
586.48,7210.00
588.53,7229.00
590.58,7275.00
592.63,7258.00
594.68,7212.00
596.72,7213.00
598.77,7102.00
600.82,7059.00
602.86,7158.00
604.90,7052.00
606.95,7000.00
608.99,7057.00
611.03,7079.00
613.07,6947.00
615.11,6997.00
617.15,6999.00
619.18,7035.00
621.22,7075.00
623.25,6976.00
625.29,6995.00
627.32,7284.00
629.35,7198.00
631.38,7416.00
633.41,7437.00
635.44,7395.00
637.47,7353.00
639.50,7271.00
641.52,7065.00
643.55,7029.00
645.57,6961.00
647.60,6964.00
649.62,6985.00
651.64,6965.00
653.66,6947.00
655.68,7018.00
657.70,6991.00
659.71,7022.00
661.73,6958.00
663.75,7021.00
665.76,7050.00
667.77,7010.00
669.79,7081.00
671.80,6908.00
673.81,7052.00
675.82,6913.00
677.83,7103.00
679.83,6928.00
681.84,6961.00
683.84,7027.00
685.85,6908.00
687.85,6987.00
689.86,6940.00
691.86,6953.00
693.86,6892.00
695.86,7025.00
697.86,7014.00
699.85,7014.00
701.85,6942.00
703.85,7146.00
705.84,7123.00
707.84,7128.00
709.83,7109.00
711.82,7198.00
713.81,7187.00
715.80,7338.00
717.79,7270.00
719.78,7364.00
721.76,7326.00
723.75,7309.00
725.74,7426.00
727.72,7362.00
729.70,7329.00
731.68,7305.00
733.67,7300.00
735.65,7298.00
737.62,7282.00
739.60,7232.00
741.58,7368.00
743.56,7474.00
745.53,7577.00
747.51,7632.00
749.48,7604.00
751.45,7790.00
753.42,7697.00
755.39,7611.00
757.36,7573.00
759.33,7463.00
761.30,7288.00
763.26,7412.00
765.23,7265.00
767.19,7435.00
769.16,7480.00
771.12,7469.00
773.08,7442.00
775.04,7488.00
777.00,7609.00
778.96,7760.00
780.92,7872.00
782.87,8064.00
784.83,8303.00
786.78,8327.00
788.74,8268.00
790.69,8172.00
792.64,7939.00
794.59,7811.00
796.54,7819.00
798.49,7738.00
800.44,7846.00
802.38,7829.00
804.33,7812.00
806.27,7833.00
808.22,7828.00
810.16,7929.00
812.10,7938.00
814.04,7966.00
815.98,8098.00
817.92,8294.00
819.86,8300.00
821.80,8424.00
823.73,8484.00
825.67,8580.00
827.60,8530.00
829.53,8634.00
831.47,8717.00
833.40,8749.00
835.33,8781.00
837.26,8779.00
839.18,8703.00
841.11,8659.00
843.04,8690.00
844.96,8642.00
846.89,8395.00
848.81,8271.00
850.73,8213.00
852.65,8174.00
854.57,8076.00
856.49,8058.00
858.41,8126.00
860.33,8070.00
862.24,8018.00
864.16,8047.00
866.07,8093.00
867.99,8043.00
869.90,8020.00
871.81,8110.00
873.72,8081.00
875.63,8146.00
877.54,8129.00
879.44,8197.00
881.35,8069.00
883.26,8072.00
885.16,8186.00
887.06,8109.00
888.97,8178.00
890.87,8068.00
892.77,8064.00
894.67,8005.00
896.57,7799.00
898.46,7832.00
900.36,7725.00
902.26,7697.00
904.15,7703.00
906.04,7535.00
907.94,7580.00
909.83,7562.00
911.72,7570.00
913.61,7541.00
915.50,7600.00
917.38,7552.00
919.27,7501.00
921.16,7606.00
923.04,7602.00
924.92,7545.00
926.81,7442.00
928.69,7402.00
930.57,7408.00
932.45,7370.00
934.33,7322.00
936.20,7373.00
938.08,7385.00
939.96,7433.00
941.83,7509.00
943.71,7467.00
945.58,7503.00
947.45,7549.00
949.32,7497.00
951.19,7520.00
953.06,7447.00
954.93,7541.00
956.79,7499.00
958.66,7301.00
960.52,7303.00
962.39,7176.00
964.25,7156.00
966.11,7065.00
967.97,7197.00
969.83,7077.00
971.69,7111.00
973.55,7074.00
975.41,6968.00
977.26,7105.00
979.12,7023.00
980.97,7109.00
982.82,7095.00
984.68,7181.00
986.53,7153.00
988.38,7157.00
990.23,7164.00
992.07,7286.00
993.92,7303.00
995.77,7370.00
997.61,7569.00
999.46,7685.00
1001.30,7794.00
1003.14,7883.00
1004.98,7747.00
1006.82,7657.00
1008.66,7562.00
1010.50,7482.00
1012.34,7364.00
1014.17,7334.00
1016.01,7450.00
1017.84,7407.00
1019.68,7450.00
1021.51,7525.00
1023.34,7469.00
1025.17,7526.00
1027.00,7606.00
1028.83,7612.00
1030.65,7704.00
1032.48,7712.00
1034.31,7742.00
1036.13,7861.00
1037.95,7904.00
1039.77,8026.00
1041.60,8147.00
1043.42,8304.00
1045.24,8519.00
1047.05,8979.00
1048.87,9586.00
1050.69,10783.00
1052.50,12675.00
1054.32,15679.00
1056.13,19459.00
1057.94,23486.00
1059.75,26353.00
1061.56,27605.00
1063.37,26625.00
1065.18,23705.00
1066.99,19961.00
1068.80,16554.00
1070.60,13858.00
1072.41,12362.00
1074.21,11541.00
1076.01,11168.00
1077.81,11032.00
1079.61,10912.00
1081.41,10870.00
1083.21,10746.00
1085.01,10547.00
1086.81,10484.00
1088.60,10208.00
1090.40,10042.00
1092.19,9847.00
1093.98,9651.00
1095.77,9333.00
1097.56,9112.00
1099.35,8996.00
1101.14,8879.00
1102.93,8890.00
1104.72,8819.00
1106.50,8959.00
1108.29,9067.00
1110.07,9331.00
1111.85,9581.00
1113.63,10008.00
1115.41,10756.00
1117.19,11664.00
1118.97,13236.00
1120.75,15670.00
1122.53,19133.00
1124.30,23159.00
1126.08,26462.00
1127.85,28064.00
1129.62,27993.00
1131.39,25253.00
1133.17,21364.00
1134.93,17374.00
1136.70,13680.00
1138.47,11345.00
1140.24,9948.00
1142.00,9142.00
1143.77,8580.00
1145.53,8300.00
1147.29,8119.00
1149.06,8022.00
1150.82,7882.00
1152.58,7899.00
1154.34,7912.00
1156.09,7948.00
1157.85,7963.00
1159.61,8220.00
1161.36,8551.00
1163.11,9274.00
1164.87,10010.00
1166.62,10522.00
1168.37,10697.00
1170.12,10722.00
1171.87,10324.00
1173.62,9704.00
1175.36,9200.00
1177.11,8730.00
1178.85,8715.00
1180.60,8852.00
1182.34,8907.00
1184.08,8977.00
1185.82,8928.00
1187.56,8781.00
1189.30,8469.00
1191.04,8275.00
1192.78,7960.00
1194.51,7836.00
1196.25,7725.00
1197.98,7566.00
1199.71,7530.00
1201.45,7617.00
1203.18,7636.00
1204.91,7706.00
1206.64,7562.00
1208.36,7575.00
1210.09,7423.00
1211.82,7358.00
1213.54,7305.00
1215.27,7242.00
1216.99,7132.00
1218.71,7147.00
1220.43,7193.00
1222.15,7147.00
1223.87,7159.00
1225.59,7052.00
1227.31,7113.00
1229.02,6972.00
1230.74,6982.00
1232.45,6974.00
1234.16,6977.00
1235.88,6943.00
1237.59,6908.00
1239.30,7033.00
1241.01,6958.00
1242.71,7098.00
1244.42,7102.00
1246.13,7142.00
1247.83,7235.00
1249.54,7339.00
1251.24,7398.00
1252.94,7440.00
1254.64,7541.00
1256.34,7548.00
1258.04,7646.00
1259.74,7754.00
1261.44,7984.00
1263.13,8038.00
1264.83,8212.00
1266.52,8513.00
1268.22,8538.00
1269.91,8583.00
1271.60,8728.00
1273.29,8726.00
1274.98,8905.00
1276.67,9049.00
1278.35,9312.00
1280.04,9529.00
1281.73,10335.00
1283.41,11321.00
1285.09,13265.00
1286.78,16898.00
1288.46,22374.00
1290.14,28653.00
1291.82,34381.00
1293.49,36261.00
1295.17,38140.00
1296.85,35421.00
1298.52,30245.00
1300.20,24279.00
1301.87,19277.00
1303.54,16052.00
1305.21,14001.00
1306.88,12678.00
1308.55,11833.00
1310.22,11255.00
1311.89,10596.00
1313.56,10138.00
1315.22,9767.00
1316.89,9337.00
1318.55,9009.00
1320.21,8841.00
1321.87,8605.00
1323.53,8349.00
1325.19,8243.00
1326.85,7965.00
1328.51,7874.00
1330.16,7670.00
1331.82,7492.00
1333.47,7419.00
1335.13,7330.00
1336.78,7271.00
1338.43,7255.00
1340.08,7382.00
1341.73,7284.00
1343.38,7353.00
1345.03,7272.00
1346.67,7261.00
1348.32,7208.00
1349.96,7134.00
1351.61,7095.00
1353.25,7079.00
1354.89,7150.00
1356.53,7202.00
1358.17,7273.00
1359.81,7446.00
1361.45,7623.00
1363.08,7862.00
1364.72,8233.00
1366.35,8418.00
1367.99,8570.00
1369.62,8431.00
1371.25,8312.00
1372.88,8011.00
1374.51,7645.00
1376.14,7351.00
1377.77,7197.00
1379.39,6974.00
1381.02,6754.00
1382.64,6724.00
1384.27,6651.00
1385.89,6765.00
1387.51,6668.00
1389.13,6679.00
1390.75,6656.00
1392.37,6725.00
1393.99,6773.00
1395.60,6719.00
1397.22,6795.00
1398.83,6879.00
1400.45,7014.00
1402.06,7216.00
1403.67,7546.00
1405.28,8028.00
1406.89,8962.00
1408.50,10360.00
1410.11,12181.00
1411.71,14254.00
1413.32,16264.00
1414.92,17621.00
1416.53,18062.00
1418.13,17688.00
1419.73,16849.00
1421.33,15692.00
1422.93,14829.00
1424.53,14536.00
1426.13,14785.00
1427.72,15866.00
1429.32,17747.00
1430.91,20108.00
1432.51,23087.00
1434.10,26577.00
1435.69,29758.00
1437.28,32262.00
1438.87,33670.00
1440.46,33284.00
1442.05,32082.00
1443.64,29702.00
1445.22,27236.00
1446.81,25065.00
1448.39,23401.00
1449.97,22470.00
1451.55,21727.00
1453.14,21620.00
1454.72,21791.00
1456.29,22115.00
1457.87,22253.00
1459.45,22389.00
1461.02,22235.00
1462.60,21898.00
1464.17,21048.00
1465.75,19920.00
1467.32,18629.00
1468.89,17140.00
1470.46,15802.00
1472.03,14406.00
1473.59,13056.00
1475.16,11926.00
1476.73,11055.00
1478.29,10236.00
1479.86,9521.00
1481.42,9012.00
1482.98,8602.00
1484.54,8218.00
1486.10,7931.00
1487.66,7705.00
1489.22,7478.00
1490.77,7351.00
1492.33,7136.00
1493.88,7091.00
1495.44,6877.00
1496.99,6778.00
1498.54,6720.00
1500.09,6544.00
1501.64,6566.00
1503.19,6480.00
1504.74,6373.00
1506.29,6382.00
1507.83,6296.00
1509.38,6264.00
1510.92,6159.00
1512.47,6171.00
1514.01,6134.00
1515.55,6059.00
1517.09,6099.00
1518.63,6034.00
1520.16,6088.00
1521.70,6074.00
1523.24,6116.00
1524.77,6050.00
1526.31,5996.00
1527.84,5939.00
1529.37,5992.00
1530.90,5929.00
1532.43,5959.00
1533.96,5917.00
1535.49,5880.00
1537.02,5954.00
1538.54,5813.00
1540.07,5896.00
1541.59,5895.00
1543.11,5858.00
1544.64,5795.00
1546.16,5829.00
1547.68,5764.00
1549.20,5817.00
1550.71,5821.00
1552.23,5713.00
1553.75,5747.00
1555.26,5720.00
1556.78,5756.00
1558.29,5674.00
1559.80,5698.00
1561.31,5732.00
1562.82,5627.00
1564.33,5669.00
1565.84,5637.00
1567.35,5696.00
1568.85,5707.00
1570.36,5692.00
1571.86,5774.00
1573.36,5658.00
1574.87,5640.00
1576.37,5618.00
1577.87,5589.00
1579.37,5484.00
1580.87,5490.00
1582.36,5405.00
1583.86,5426.00
1585.35,5429.00
1586.85,5385.00
1588.34,5441.00
1589.83,5381.00
1591.32,5330.00
1592.81,5423.00
1594.30,5380.00
1595.79,5416.00
1597.28,5373.00
1598.76,5374.00
1600.25,5474.00
1601.73,5606.00
1603.22,5648.00
1604.70,5890.00
1606.18,5884.00
1607.66,6103.00
1609.14,6247.00
1610.62,6236.00
1612.10,6149.00
1613.57,6202.00
1615.05,5968.00
1616.52,5734.00
1617.99,5574.00
1619.47,5395.00
1620.94,5322.00
1622.41,5260.00
1623.88,5144.00
1625.35,5129.00
1626.81,5087.00
1628.28,5085.00
1629.74,5035.00
1631.21,4965.00
1632.67,4934.00
1634.13,4933.00
1635.60,4954.00
1637.06,4973.00
1638.51,5013.00
1639.97,5005.00
1641.43,5021.00
1642.89,4988.00
1644.34,4979.00
1645.80,4864.00
1647.25,4872.00
1648.70,4804.00
1650.15,4769.00
1651.60,4809.00
1653.05,4720.00
1654.50,4710.00
1655.95,4673.00
1657.40,4697.00
1658.84,4606.00
1660.28,4550.00
1661.73,4693.00
1663.17,4602.00
1664.61,4560.00
1666.05,4589.00
1667.49,4611.00
1668.93,4508.00
1670.37,4577.00
1671.80,4461.00
1673.24,4484.00
1674.67,4469.00
1676.11,4503.00
1677.54,4465.00
1678.97,4435.00
1680.40,4392.00
1681.83,4433.00
1683.26,4453.00
1684.69,4360.00
1686.11,4419.00
1687.54,4381.00
1688.96,4379.00
1690.39,4355.00
1691.81,4294.00
1693.23,4355.00
1694.65,4300.00
1696.07,4292.00
1697.49,4307.00
1698.91,4282.00
1700.32,4315.00
1701.74,4225.00
1703.15,4263.00
1704.57,4300.00
1705.98,4320.00
1707.39,4259.00
1708.80,4282.00
1710.21,4180.00
1711.62,4256.00
1713.03,4196.00
1714.43,4180.00
1715.84,4170.00
1717.24,4195.00
1718.65,4086.00
1720.05,4200.00
1721.45,4132.00
1722.85,4104.00
1724.25,4090.00
1725.65,4088.00
1727.05,4097.00
1728.44,4129.00
1729.84,4056.00
1731.23,4077.00
1732.63,4082.00
1734.02,3974.00
1735.41,3977.00
1736.80,3990.00
1738.19,3960.00
1739.58,4020.00
1740.97,3996.00
1742.35,3919.00
1743.74,3938.00
1745.12,3929.00
1746.51,3949.00
1747.89,3926.00
1749.27,3943.00
1750.65,3947.00
1752.03,3872.00
1753.41,3923.00
1754.79,3877.00
1756.17,3849.00
1757.54,3851.00
1758.92,3777.00
1760.29,3827.00
1761.66,3811.00
1763.03,3763.00
1764.41,3835.00
1765.78,3719.00
1767.14,3784.00
1768.51,3742.00
1769.88,3727.00
1771.24,3700.00
1772.61,3729.00
1773.97,3679.00
1775.34,3666.00
1776.70,3645.00
1778.06,3690.00
1779.42,3633.00
1780.78,3619.00
1782.13,3604.00
1783.49,3613.00
1784.85,3590.00
1786.20,3624.00
1787.56,3639.00
1788.91,3548.00
1790.26,3559.00
1791.61,3510.00
1792.96,3567.00
1794.31,3527.00
1795.66,3452.00
1797.00,3445.00
1798.35,3424.00
1799.69,3388.00
1801.04,3409.00
1802.38,3400.00
1803.72,3394.00
1805.06,3417.00
1806.40,3369.00
1807.74,3456.00
1809.08,3411.00
1810.42,3384.00
1811.75,3344.00
1813.09,3311.00
1814.42,3316.00
1815.76,3293.00
1817.09,3267.00
1818.42,3281.00
1819.75,3298.00
1821.08,3281.00
1822.40,3280.00
1823.73,3242.00
1825.06,3159.00
1826.38,3176.00
1827.71,3190.00
1829.03,3129.00
1830.35,3130.00
1831.67,3098.00
1832.99,3154.00
1834.31,3089.00
1835.63,3084.00
1836.95,3105.00
1838.26,3126.00
1839.58,3076.00
1840.89,3067.00
1842.20,3033.00
1843.52,3049.00
1844.83,3029.00
1846.14,3040.00
1847.45,2987.00
1848.75,3023.00
1850.06,2962.00
1851.37,2941.00
1852.67,2941.00
1853.98,2975.00
1855.28,2929.00
1856.58,2883.00
1857.88,2920.00
1859.18,2905.00
1860.48,2848.00
1861.78,2869.00
1863.08,2890.00
1864.37,2821.00
1865.67,2815.00
1866.96,2808.00
1868.26,2751.00
1869.55,2813.00
1870.84,2760.00
1872.13,2736.00
1873.42,2741.00
1874.71,2730.00
1875.99,2699.00
1877.28,2747.00
1878.56,2702.00
1879.85,2648.00
1881.13,2707.00
1882.41,2661.00
1883.69,2677.00
1884.97,2638.00
1886.25,2646.00
1887.53,2637.00
1888.81,2654.00
1890.09,2565.00
1891.36,2561.00
1892.63,2570.00
1893.91,2574.00
1895.18,2539.00
1896.45,2496.00
1897.72,2540.00
1898.99,2528.00
1900.26,2521.00
1901.53,2488.00
1902.79,2484.00
1904.06,2487.00
1905.32,2456.00
1906.58,2447.00
1907.85,2408.00
1909.11,2414.00
1910.37,2385.00
1911.63,2385.00
1912.89,2408.00
1914.14,2404.00
1915.40,2409.00
1916.65,2342.00
1917.91,2336.00
1919.16,2319.00
1920.41,2351.00
1921.67,2330.00
1922.92,2332.00
1924.17,2344.00
1925.41,2342.00
1926.66,2253.00
1927.91,2240.00
1929.15,2319.00
1930.40,2288.00
1931.64,2254.00
1932.88,2251.00
1934.12,2258.00
1935.36,2221.00
1936.60,2205.00
1937.84,2176.00
1939.08,2199.00
1940.32,2184.00
1941.55,2159.00
1942.79,2199.00
1944.02,2165.00
1945.25,2125.00
1946.48,2123.00
1947.71,2089.00
1948.94,2099.00
1950.17,2116.00
1951.40,2121.00
1952.62,2108.00
1953.85,2083.00
1955.07,2087.00
1956.30,2057.00
1957.52,2074.00
1958.74,2079.00
1959.96,2101.00
1961.18,2030.00
1962.40,2119.00
1963.62,2062.00
1964.83,2069.00
1966.05,2030.00
1967.26,2079.00
1968.48,2011.00
1969.69,1956.00
1970.90,1965.00
1972.11,2003.00
1973.32,1954.00
1974.53,1933.00
1975.74,1978.00
1976.94,1978.00
1978.15,1957.00
1979.35,1954.00
1980.56,1950.00
1981.76,1894.00
1982.96,1915.00
1984.16,1939.00
1985.36,1887.00
1986.56,1891.00
1987.76,1904.00
1988.95,1838.00
1990.15,1822.00
1991.34,1878.00
1992.54,1860.00
1993.73,1889.00
1994.92,1899.00
1996.11,1866.00
1997.30,1825.00
1998.49,1820.00
1999.68,1820.00
