ENLIGHTEN Version,1.7.2
Measurement ID,20190716-203954-292325-WP-00340
Serial Number,WP-00340
Label,Isopropanol-2mm-HDPE
Integration Time,2000
Timestamp,2019-07-16 20:39:54.292325
Note,
Temperature,-99
CCD C0,801.7174072265625
CCD C1,0.14122000336647034
CCD C2,-5.609700110653648e-06
CCD C3,-8.541699791919655e-09
CCD Offset,0
CCD Gain,1.9
Laser Wavelength,785.0
Laser Enable,True
Laser Power,100.0
Laser Temperature,-99
Pixel Count,1024

Wavenumber,Processed
265.63,233.00
267.83,288.00
270.02,318.00
272.22,422.00
274.41,538.00
276.60,694.00
278.80,824.00
280.99,1018.00
283.18,1316.00
285.37,1568.00
287.55,1885.00
289.74,2241.00
291.93,2505.00
294.11,2856.00
296.30,3135.00
298.48,3399.00
300.66,3556.00
302.84,3730.00
305.02,3740.00
307.20,3805.00
309.38,3943.00
311.56,3910.00
313.74,3898.00
315.91,3896.00
318.09,3851.00
320.26,3970.00
322.43,3913.00
324.61,3962.00
326.78,4036.00
328.95,4028.00
331.12,4018.00
333.28,4048.00
335.45,4044.00
337.62,4054.00
339.78,4088.00
341.95,4108.00
344.11,4118.00
346.27,4143.00
348.43,4195.00
350.59,4181.00
352.75,4092.00
354.91,4121.00
357.07,4139.00
359.23,4157.00
361.38,4180.00
363.54,4172.00
365.69,4234.00
367.84,4291.00
370.00,4235.00
372.15,4343.00
374.30,4315.00
376.45,4347.00
378.59,4364.00
380.74,4383.00
382.89,4379.00
385.03,4286.00
387.18,4294.00
389.32,4360.00
391.46,4394.00
393.60,4328.00
395.74,4351.00
397.88,4347.00
400.02,4423.00
402.16,4404.00
404.29,4470.00
406.43,4435.00
408.57,4440.00
410.70,4490.00
412.83,4517.00
414.96,4482.00
417.09,4469.00
419.22,4568.00
421.35,4508.00
423.48,4573.00
425.61,4611.00
427.73,4505.00
429.86,4535.00
431.98,4501.00
434.11,4547.00
436.23,4579.00
438.35,4499.00
440.47,4560.00
442.59,4449.00
444.71,4409.00
446.82,4472.00
448.94,4436.00
451.05,4440.00
453.17,4489.00
455.28,4394.00
457.39,4427.00
459.51,4410.00
461.62,4366.00
463.73,4298.00
465.83,4449.00
467.94,4395.00
470.05,4337.00
472.15,4428.00
474.26,4385.00
476.36,4401.00
478.47,4494.00
480.57,4541.00
482.67,4581.00
484.77,4618.00
486.87,4584.00
488.97,4641.00
491.06,4587.00
493.16,4478.00
495.25,4440.00
497.35,4301.00
499.44,4270.00
501.53,4214.00
503.62,4166.00
505.71,4052.00
507.80,3939.00
509.89,3919.00
511.98,3919.00
514.07,3814.00
516.15,3861.00
518.24,3786.00
520.32,3780.00
522.40,3785.00
524.48,3719.00
526.56,3683.00
528.64,3692.00
530.72,3716.00
532.80,3646.00
534.88,3700.00
536.95,3638.00
539.03,3677.00
541.10,3548.00
543.17,3702.00
545.24,3605.00
547.32,3532.00
549.39,3598.00
551.45,3597.00
553.52,3594.00
555.59,3645.00
557.66,3577.00
559.72,3498.00
561.78,3540.00
563.85,3542.00
565.91,3601.00
567.97,3542.00
570.03,3559.00
572.09,3531.00
574.15,3552.00
576.21,3561.00
578.26,3550.00
580.32,3529.00
582.37,3571.00
584.42,3518.00
586.48,3614.00
588.53,3580.00
590.58,3538.00
592.63,3510.00
594.68,3551.00
596.72,3649.00
598.77,3432.00
600.82,3523.00
602.86,3538.00
604.90,3531.00
606.95,3542.00
608.99,3483.00
611.03,3487.00
613.07,3423.00
615.11,3502.00
617.15,3448.00
619.18,3424.00
621.22,3447.00
623.25,3411.00
625.29,3415.00
627.32,3392.00
629.35,3415.00
631.38,3413.00
633.41,3373.00
635.44,3353.00
637.47,3333.00
639.50,3350.00
641.52,3413.00
643.55,3411.00
645.57,3405.00
647.60,3321.00
649.62,3405.00
651.64,3393.00
653.66,3363.00
655.68,3354.00
657.70,3385.00
659.71,3411.00
661.73,3407.00
663.75,3373.00
665.76,3322.00
667.77,3389.00
669.79,3466.00
671.80,3403.00
673.81,3325.00
675.82,3350.00
677.83,3397.00
679.83,3350.00
681.84,3322.00
683.84,3359.00
685.85,3376.00
687.85,3381.00
689.86,3305.00
691.86,3342.00
693.86,3355.00
695.86,3381.00
697.86,3430.00
699.85,3327.00
701.85,3436.00
703.85,3419.00
705.84,3406.00
707.84,3424.00
709.83,3430.00
711.82,3516.00
713.81,3496.00
715.80,3525.00
717.79,3489.00
719.78,3489.00
721.76,3557.00
723.75,3557.00
725.74,3553.00
727.72,3494.00
729.70,3523.00
731.68,3517.00
733.67,3538.00
735.65,3574.00
737.62,3525.00
739.60,3471.00
741.58,3522.00
743.56,3489.00
745.53,3521.00
747.51,3500.00
749.48,3459.00
751.45,3513.00
753.42,3521.00
755.39,3516.00
757.36,3436.00
759.33,3472.00
761.30,3458.00
763.26,3524.00
765.23,3580.00
767.19,3473.00
769.16,3603.00
771.12,3590.00
773.08,3612.00
775.04,3555.00
777.00,3615.00
778.96,3715.00
780.92,3691.00
782.87,3637.00
784.83,3689.00
786.78,3769.00
788.74,3691.00
790.69,3808.00
792.64,3799.00
794.59,3827.00
796.54,3841.00
798.49,3914.00
800.44,4023.00
802.38,4161.00
804.33,4299.00
806.27,4531.00
808.22,4981.00
810.16,5568.00
812.10,6545.00
814.04,7418.00
815.98,8068.00
817.92,8387.00
819.86,8173.00
821.80,7546.00
823.73,6635.00
825.67,5718.00
827.60,4956.00
829.53,4446.00
831.47,4161.00
833.40,4072.00
835.33,3983.00
837.26,3957.00
839.18,3855.00
841.11,3808.00
843.04,3806.00
844.96,3799.00
846.89,3831.00
848.81,3799.00
850.73,3766.00
852.65,3831.00
854.57,3771.00
856.49,3803.00
858.41,3759.00
860.33,3776.00
862.24,3793.00
864.16,3782.00
866.07,3736.00
867.99,3768.00
869.90,3765.00
871.81,3778.00
873.72,3767.00
875.63,3774.00
877.54,3770.00
879.44,3803.00
881.35,3770.00
883.26,3760.00
885.16,3759.00
887.06,3768.00
888.97,3764.00
890.87,3749.00
892.77,3669.00
894.67,3694.00
896.57,3723.00
898.46,3645.00
900.36,3578.00
902.26,3595.00
904.15,3586.00
906.04,3554.00
907.94,3668.00
909.83,3622.00
911.72,3672.00
913.61,3709.00
915.50,3634.00
917.38,3656.00
919.27,3700.00
921.16,3704.00
923.04,3700.00
924.92,3820.00
926.81,3784.00
928.69,3841.00
930.57,3909.00
932.45,3875.00
934.33,3965.00
936.20,4054.00
938.08,3968.00
939.96,3999.00
941.83,4090.00
943.71,4085.00
945.58,4096.00
947.45,4172.00
949.32,4262.00
951.19,4229.00
953.06,4263.00
954.93,4090.00
956.79,4007.00
958.66,3958.00
960.52,3721.00
962.39,3681.00
964.25,3618.00
966.11,3504.00
967.97,3463.00
969.83,3428.00
971.69,3458.00
973.55,3519.00
975.41,3446.00
977.26,3405.00
979.12,3350.00
980.97,3298.00
982.82,3367.00
984.68,3286.00
986.53,3344.00
988.38,3312.00
990.23,3314.00
992.07,3301.00
993.92,3355.00
995.77,3399.00
997.61,3354.00
999.46,3363.00
1001.30,3431.00
1003.14,3392.00
1004.98,3411.00
1006.82,3295.00
1008.66,3418.00
1010.50,3392.00
1012.34,3360.00
1014.17,3437.00
1016.01,3424.00
1017.84,3435.00
1019.68,3492.00
1021.51,3477.00
1023.34,3517.00
1025.17,3513.00
1027.00,3552.00
1028.83,3573.00
1030.65,3584.00
1032.48,3612.00
1034.31,3665.00
1036.13,3670.00
1037.95,3702.00
1039.77,3724.00
1041.60,3745.00
1043.42,3881.00
1045.24,4001.00
1047.05,4086.00
1048.87,4524.00
1050.69,4927.00
1052.50,5858.00
1054.32,7209.00
1056.13,9109.00
1057.94,10832.00
1059.75,12156.00
1061.56,12797.00
1063.37,12338.00
1065.18,10919.00
1066.99,9297.00
1068.80,7659.00
1070.60,6437.00
1072.41,5764.00
1074.21,5378.00
1076.01,5235.00
1077.81,5119.00
1079.61,5091.00
1081.41,5066.00
1083.21,5087.00
1085.01,5013.00
1086.81,4971.00
1088.60,4908.00
1090.40,4762.00
1092.19,4647.00
1093.98,4602.00
1095.77,4628.00
1097.56,4497.00
1099.35,4427.00
1101.14,4486.00
1102.93,4487.00
1104.72,4539.00
1106.50,4463.00
1108.29,4615.00
1110.07,4683.00
1111.85,4913.00
1113.63,4994.00
1115.41,5300.00
1117.19,5768.00
1118.97,6535.00
1120.75,7653.00
1122.53,9423.00
1124.30,11239.00
1126.08,12892.00
1127.85,13893.00
1129.62,13794.00
1131.39,12690.00
1133.17,10801.00
1134.93,8722.00
1136.70,7000.00
1138.47,5785.00
1140.24,5090.00
1142.00,4659.00
1143.77,4353.00
1145.53,4149.00
1147.29,4069.00
1149.06,3953.00
1150.82,3953.00
1152.58,3938.00
1154.34,3961.00
1156.09,3967.00
1157.85,4046.00
1159.61,4182.00
1161.36,4288.00
1163.11,4564.00
1164.87,4999.00
1166.62,5233.00
1168.37,5247.00
1170.12,5245.00
1171.87,4978.00
1173.62,4581.00
1175.36,4146.00
1177.11,3886.00
1178.85,3686.00
1180.60,3597.00
1182.34,3455.00
1184.08,3466.00
1185.82,3356.00
1187.56,3421.00
1189.30,3281.00
1191.04,3390.00
1192.78,3306.00
1194.51,3384.00
1196.25,3369.00
1197.98,3240.00
1199.71,3379.00
1201.45,3240.00
1203.18,3257.00
1204.91,3201.00
1206.64,3270.00
1208.36,3246.00
1210.09,3209.00
1211.82,3262.00
1213.54,3210.00
1215.27,3291.00
1216.99,3154.00
1218.71,3226.00
1220.43,3190.00
1222.15,3246.00
1223.87,3183.00
1225.59,3293.00
1227.31,3223.00
1229.02,3222.00
1230.74,3281.00
1232.45,3288.00
1234.16,3240.00
1235.88,3267.00
1237.59,3293.00
1239.30,3340.00
1241.01,3251.00
1242.71,3272.00
1244.42,3253.00
1246.13,3285.00
1247.83,3301.00
1249.54,3285.00
1251.24,3357.00
1252.94,3388.00
1254.64,3413.00
1256.34,3493.00
1258.04,3525.00
1259.74,3625.00
1261.44,3742.00
1263.13,3736.00
1264.83,3826.00
1266.52,3840.00
1268.22,3917.00
1269.91,3992.00
1271.60,4059.00
1273.29,4037.00
1274.98,4078.00
1276.67,4147.00
1278.35,4225.00
1280.04,4405.00
1281.73,4684.00
1283.41,5304.00
1285.09,6130.00
1286.78,7727.00
1288.46,10198.00
1290.14,13227.00
1291.82,15968.00
1293.49,16888.00
1295.17,17808.00
1296.85,16512.00
1298.52,14111.00
1300.20,11287.00
1301.87,9023.00
1303.54,7558.00
1305.21,6688.00
1306.88,6065.00
1308.55,5685.00
1310.22,5374.00
1311.89,5184.00
1313.56,4935.00
1315.22,4759.00
1316.89,4601.00
1318.55,4499.00
1320.21,4307.00
1321.87,4180.00
1323.53,4117.00
1325.19,3968.00
1326.85,3977.00
1328.51,3928.00
1330.16,3867.00
1331.82,3824.00
1333.47,3822.00
1335.13,3774.00
1336.78,3776.00
1338.43,3773.00
1340.08,3759.00
1341.73,3805.00
1343.38,3811.00
1345.03,3772.00
1346.67,3736.00
1348.32,3738.00
1349.96,3634.00
1351.61,3595.00
1353.25,3565.00
1354.89,3605.00
1356.53,3571.00
1358.17,3662.00
1359.81,3637.00
1361.45,3793.00
1363.08,3921.00
1364.72,4082.00
1366.35,4229.00
1367.99,4237.00
1369.62,4185.00
1371.25,4150.00
1372.88,3972.00
1374.51,3913.00
1376.14,3703.00
1377.77,3595.00
1379.39,3542.00
1381.02,3496.00
1382.64,3453.00
1384.27,3474.00
1385.89,3492.00
1387.51,3453.00
1389.13,3421.00
1390.75,3411.00
1392.37,3449.00
1393.99,3491.00
1395.60,3533.00
1397.22,3546.00
1398.83,3637.00
1400.45,3759.00
1402.06,3748.00
1403.67,3962.00
1405.28,4142.00
1406.89,4627.00
1408.50,5203.00
1410.11,6063.00
1411.71,6993.00
1413.32,7852.00
1414.92,8585.00
1416.53,8802.00
1418.13,8657.00
1419.73,8230.00
1421.33,7689.00
1422.93,7192.00
1424.53,7090.00
1426.13,7236.00
1427.72,7815.00
1429.32,8530.00
1430.91,9716.00
1432.51,11174.00
1434.10,12711.00
1435.69,14247.00
1437.28,15354.00
1438.87,16037.00
1440.46,15942.00
1442.05,15559.00
1443.64,14518.00
1445.22,13597.00
1446.81,12598.00
1448.39,12108.00
1449.97,11572.00
1451.55,11378.00
1453.14,11424.00
1454.72,11435.00
1456.29,11469.00
1457.87,11513.00
1459.45,11429.00
1461.02,11277.00
1462.60,10988.00
1464.17,10524.00
1465.75,10027.00
1467.32,9360.00
1468.89,8726.00
1470.46,7868.00
1472.03,7187.00
1473.59,6533.00
1475.16,5937.00
1476.73,5524.00
1478.29,5085.00
1479.86,4678.00
1481.42,4518.00
1482.98,4311.00
1484.54,4158.00
1486.10,3957.00
1487.66,3853.00
1489.22,3748.00
1490.77,3697.00
1492.33,3447.00
1493.88,3502.00
1495.44,3415.00
1496.99,3379.00
1498.54,3304.00
1500.09,3255.00
1501.64,3179.00
1503.19,3172.00
1504.74,3184.00
1506.29,3128.00
1507.83,3049.00
1509.38,3055.00
1510.92,3017.00
1512.47,3079.00
1514.01,3000.00
1515.55,2991.00
1517.09,2922.00
1518.63,2956.00
1520.16,2939.00
1521.70,2943.00
1523.24,2958.00
1524.77,2931.00
1526.31,2907.00
1527.84,2901.00
1529.37,2871.00
1530.90,2909.00
1532.43,2859.00
1533.96,2920.00
1535.49,2899.00
1537.02,2843.00
1538.54,2844.00
1540.07,2848.00
1541.59,2810.00
1543.11,2823.00
1544.64,2812.00
1546.16,2778.00
1547.68,2791.00
1549.20,2795.00
1550.71,2834.00
1552.23,2785.00
1553.75,2797.00
1555.26,2783.00
1556.78,2780.00
1558.29,2829.00
1559.80,2722.00
1561.31,2736.00
1562.82,2727.00
1564.33,2714.00
1565.84,2673.00
1567.35,2714.00
1568.85,2654.00
1570.36,2652.00
1571.86,2684.00
1573.36,2635.00
1574.87,2625.00
1576.37,2629.00
1577.87,2679.00
1579.37,2574.00
1580.87,2576.00
1582.36,2667.00
1583.86,2622.00
1585.35,2595.00
1586.85,2633.00
1588.34,2587.00
1589.83,2549.00
1591.32,2577.00
1592.81,2561.00
1594.30,2614.00
1595.79,2617.00
1597.28,2528.00
1598.76,2537.00
1600.25,2504.00
1601.73,2564.00
1603.22,2504.00
1604.70,2531.00
1606.18,2522.00
1607.66,2522.00
1609.14,2558.00
1610.62,2476.00
1612.10,2471.00
1613.57,2475.00
1615.05,2475.00
1616.52,2519.00
1617.99,2469.00
1619.47,2475.00
1620.94,2411.00
1622.41,2386.00
1623.88,2451.00
1625.35,2324.00
1626.81,2448.00
1628.28,2447.00
1629.74,2458.00
1631.21,2440.00
1632.67,2422.00
1634.13,2389.00
1635.60,2435.00
1637.06,2425.00
1638.51,2463.00
1639.97,2439.00
1641.43,2439.00
1642.89,2459.00
1644.34,2403.00
1645.80,2384.00
1647.25,2360.00
1648.70,2355.00
1650.15,2347.00
1651.60,2334.00
1653.05,2256.00
1654.50,2349.00
1655.95,2311.00
1657.40,2291.00
1658.84,2269.00
1660.28,2275.00
1661.73,2277.00
1663.17,2256.00
1664.61,2233.00
1666.05,2238.00
1667.49,2313.00
1668.93,2176.00
1670.37,2243.00
1671.80,2229.00
1673.24,2233.00
1674.67,2182.00
1676.11,2182.00
1677.54,2201.00
1678.97,2216.00
1680.40,2196.00
1681.83,2148.00
1683.26,2188.00
1684.69,2129.00
1686.11,2121.00
1687.54,2140.00
1688.96,2149.00
1690.39,2155.00
1691.81,2064.00
1693.23,2098.00
1694.65,2087.00
1696.07,2118.00
1697.49,2031.00
1698.91,2094.00
1700.32,2123.00
1701.74,2106.00
1703.15,2096.00
1704.57,2055.00
1705.98,2074.00
1707.39,2068.00
1708.80,2100.00
1710.21,1997.00
1711.62,2033.00
1713.03,2077.00
1714.43,2017.00
1715.84,1980.00
1717.24,2064.00
1718.65,2040.00
1720.05,2039.00
1721.45,2014.00
1722.85,2030.00
1724.25,1966.00
1725.65,2003.00
1727.05,1966.00
1728.44,2024.00
1729.84,2001.00
1731.23,2012.00
1732.63,1984.00
1734.02,1927.00
1735.41,1961.00
1736.80,1965.00
1738.19,1917.00
1739.58,1877.00
1740.97,1891.00
1742.35,1933.00
1743.74,1914.00
1745.12,1918.00
1746.51,1938.00
1747.89,1927.00
1749.27,1929.00
1750.65,1914.00
1752.03,1861.00
1753.41,1881.00
1754.79,1820.00
1756.17,1851.00
1757.54,1886.00
1758.92,1874.00
1760.29,1868.00
1761.66,1821.00
1763.03,1846.00
1764.41,1817.00
1765.78,1815.00
1767.14,1820.00
1768.51,1883.00
1769.88,1817.00
1771.24,1864.00
1772.61,1811.00
1773.97,1777.00
1775.34,1796.00
1776.70,1762.00
1778.06,1799.00
1779.42,1762.00
1780.78,1796.00
1782.13,1737.00
1783.49,1802.00
1784.85,1756.00
1786.20,1729.00
1787.56,1701.00
1788.91,1745.00
1790.26,1735.00
1791.61,1724.00
1792.96,1727.00
1794.31,1706.00
1795.66,1678.00
1797.00,1691.00
1798.35,1704.00
1799.69,1693.00
1801.04,1645.00
1802.38,1712.00
1803.72,1693.00
1805.06,1662.00
1806.40,1674.00
1807.74,1693.00
1809.08,1684.00
1810.42,1657.00
1811.75,1682.00
1813.09,1646.00
1814.42,1631.00
1815.76,1650.00
1817.09,1619.00
1818.42,1588.00
1819.75,1585.00
1821.08,1678.00
1822.40,1623.00
1823.73,1589.00
1825.06,1566.00
1826.38,1601.00
1827.71,1539.00
1829.03,1543.00
1830.35,1574.00
1831.67,1577.00
1832.99,1575.00
1834.31,1587.00
1835.63,1579.00
1836.95,1544.00
1838.26,1566.00
1839.58,1545.00
1840.89,1529.00
1842.20,1537.00
1843.52,1533.00
1844.83,1501.00
1846.14,1562.00
1847.45,1480.00
1848.75,1531.00
1850.06,1463.00
1851.37,1473.00
1852.67,1440.00
1853.98,1461.00
1855.28,1431.00
1856.58,1423.00
1857.88,1475.00
1859.18,1440.00
1860.48,1444.00
1861.78,1455.00
1863.08,1480.00
1864.37,1419.00
1865.67,1417.00
1866.96,1423.00
1868.26,1392.00
1869.55,1402.00
1870.84,1401.00
1872.13,1404.00
1873.42,1408.00
1874.71,1406.00
1875.99,1339.00
1877.28,1418.00
1878.56,1357.00
1879.85,1423.00
1881.13,1343.00
1882.41,1351.00
1883.69,1335.00
1884.97,1370.00
1886.25,1318.00
1887.53,1250.00
1888.81,1284.00
1890.09,1323.00
1891.36,1356.00
1892.63,1307.00
1893.91,1322.00
1895.18,1277.00
1896.45,1282.00
1897.72,1280.00
1898.99,1282.00
1900.26,1256.00
1901.53,1288.00
1902.79,1313.00
1904.06,1259.00
1905.32,1257.00
1906.58,1254.00
1907.85,1269.00
1909.11,1235.00
1910.37,1244.00
1911.63,1269.00
1912.89,1236.00
1914.14,1225.00
1915.40,1235.00
1916.65,1240.00
1917.91,1219.00
1919.16,1202.00
1920.41,1187.00
1921.67,1206.00
1922.92,1225.00
1924.17,1185.00
1925.41,1146.00
1926.66,1185.00
1927.91,1212.00
1929.15,1201.00
1930.40,1134.00
1931.64,1153.00
1932.88,1149.00
1934.12,1132.00
1935.36,1178.00
1936.60,1134.00
1937.84,1135.00
1939.08,1126.00
1940.32,1123.00
1941.55,1109.00
1942.79,1138.00
1944.02,1136.00
1945.25,1144.00
1946.48,1152.00
1947.71,1155.00
1948.94,1079.00
1950.17,1124.00
1951.40,1107.00
1952.62,1082.00
1953.85,1118.00
1955.07,1096.00
1956.30,1092.00
1957.52,1052.00
1958.74,1102.00
1959.96,1092.00
1961.18,1094.00
1962.40,1049.00
1963.62,1111.00
1964.83,1050.00
1966.05,1065.00
1967.26,1061.00
1968.48,1092.00
1969.69,1017.00
1970.90,1033.00
1972.11,1025.00
1973.32,1056.00
1974.53,1067.00
1975.74,1017.00
1976.94,1046.00
1978.15,1020.00
1979.35,1027.00
1980.56,1027.00
1981.76,1025.00
1982.96,1011.00
1984.16,1014.00
1985.36,997.00
1986.56,1014.00
1987.76,978.00
1988.95,1003.00
1990.15,976.00
1991.34,993.00
1992.54,989.00
1993.73,995.00
1994.92,959.00
1996.11,967.00
1997.30,1006.00
1998.49,995.00
1999.68,973.00
